Timestamp,BVP,Note,AGG,ED,SIB,Condition
1565285880000,-0,0,0,0,0,0
1565285880015.63,-0,0,0,0,0,0
1565285880031.25,-0,0,0,0,0,0
1565285880046.88,-0,0,0,0,0,0
1565285880062.5,-0,0,0,0,0,0
1565285880078.13,-0,0,0,0,0,0
1565285880093.75,-0,0,0,0,0,0
1565285880109.38,-0,0,0,0,0,0
1565285880125,-0,0,0,0,0,0
1565285880140.63,-0,0,0,0,0,0
1565285880156.25,0,0,0,0,0,0
1565285880171.88,0.01,0,0,0,0,0
1565285880187.5,0.01,0,0,0,0,0
1565285880203.13,-0,0,0,0,0,0
1565285880218.75,-0.03,0,0,0,0,0
1565285880234.38,-0.05,0,0,0,0,0
1565285880250,-0.05,0,0,0,0,0
1565285880265.63,0,0,0,0,0,0
1565285880281.25,0.13,0,0,0,0,0
1565285880296.88,0.36,0,0,0,0,0
1565285880312.5,0.66,0,0,0,0,0
1565285880328.13,1.01,0,0,0,0,0
1565285880343.75,1.37,0,0,0,0,0
1565285880359.38,1.72,0,0,0,0,0
1565285880375,2.06,0,0,0,0,0
1565285880390.63,2.4,0,0,0,0,0
1565285880406.25,2.79,0,0,0,0,0
1565285880421.88,3.24,0,0,0,0,0
1565285880437.5,3.8,0,0,0,0,0
1565285880453.13,4.42,0,0,0,0,0
1565285880468.75,5.06,0,0,0,0,0
1565285880484.38,5.66,0,0,0,0,0
1565285880500,6.2,0,0,0,0,0
1565285880515.63,6.68,0,0,0,0,0
1565285880531.25,7.15,0,0,0,0,0
1565285880546.88,7.68,0,0,0,0,0
1565285880562.5,8.31,0,0,0,0,0
1565285880578.13,9.14,0,0,0,0,0
1565285880593.75,10.09,0,0,0,0,0
1565285880609.38,11.04,0,0,0,0,0
1565285880625,11.88,0,0,0,0,0
1565285880640.63,12.56,0,0,0,0,0
1565285880656.25,13.14,0,0,0,0,0
1565285880671.88,13.76,0,0,0,0,0
1565285880687.5,14.65,0,0,0,0,0
1565285880703.13,15.96,0,0,0,0,0
1565285880718.75,17.91,0,0,0,0,0
1565285880734.38,20.32,0,0,0,0,0
1565285880750,22.9,0,0,0,0,0
1565285880765.63,25.38,0,0,0,0,0
1565285880781.25,27.58,0,0,0,0,0
1565285880796.88,29.57,0,0,0,0,0
1565285880812.5,31.68,0,0,0,0,0
1565285880828.13,34.32,0,0,0,0,0
1565285880843.75,37.81,0,0,0,0,0
1565285880859.38,42.54,0,0,0,0,0
1565285880875,48.15,0,0,0,0,0
1565285880890.63,54.1,0,0,0,0,0
1565285880906.25,59.83,0,0,0,0,0
1565285880921.88,64.97,0,0,0,0,0
1565285880937.5,69.58,0,0,0,0,0
1565285880953.13,74.14,0,0,0,0,0
1565285880968.75,79.34,0,0,0,0,0
1565285880984.38,85.71,0,0,0,0,0
1565285881000,93.76,0,0,0,0,0
1565285881015.63,103,0,0,0,0,0
1565285881031.25,112.62,0,0,0,0,0
1565285881046.88,121.73,0,0,0,0,0
1565285881062.5,129.77,0,0,0,0,0
1565285881078.13,136.75,0,0,0,0,0
1565285881093.75,143.3,0,0,0,0,0
1565285881109.38,150.75,0,0,0,0,0
1565285881125,157.77,0,0,0,0,0
1565285881140.63,166.64,0,0,0,0,0
1565285881156.25,177.95,0,0,0,0,0
1565285881171.88,191.79,0,0,0,0,0
1565285881187.5,206.97,0,0,0,0,0
1565285881203.13,220.57,0,0,0,0,0
1565285881218.75,228.25,0,0,0,0,0
1565285881234.38,225.36,0,0,0,0,0
1565285881250,208.53,0,0,0,0,0
1565285881265.63,176.87,0,0,0,0,0
1565285881281.25,132.76,0,0,0,0,0
1565285881296.88,80.05,0,0,0,0,0
1565285881312.5,23.07,0,0,0,0,0
1565285881328.13,-34.94,0,0,0,0,0
1565285881343.75,-92.44,0,0,0,0,0
1565285881359.38,-149.16,0,0,0,0,0
1565285881375,-205.23,0,0,0,0,0
1565285881390.63,-260.37,0,0,0,0,0
1565285881406.25,-313.74,0,0,0,0,0
1565285881421.88,-363.87,0,0,0,0,0
1565285881437.5,-409.83,0,0,0,0,0
1565285881453.13,-450.91,0,0,0,0,0
1565285881468.75,-486.5,0,0,0,0,0
1565285881484.38,-515.74,0,0,0,0,0
1565285881500,-537.23,0,0,0,0,0
1565285881515.63,-549.22,0,0,0,0,0
1565285881531.25,-549.96,0,0,0,0,0
1565285881546.88,-538.36,0,0,0,0,0
1565285881562.5,-514.18,0,0,0,0,0
1565285881578.13,-478.64,0,0,0,0,0
1565285881593.75,-433.82,0,0,0,0,0
1565285881609.38,-382.37,0,0,0,0,0
1565285881625,-326.9,0,0,0,0,0
1565285881640.63,-269.69,0,0,0,0,0
1565285881656.25,-212.44,0,0,0,0,0
1565285881671.88,-156.41,0,0,0,0,0
1565285881687.5,-102.65,0,0,0,0,0
1565285881703.13,-52.02,0,0,0,0,0
1565285881718.75,-5.49,0,0,0,0,0
1565285881734.38,36.06,0,0,0,0,0
1565285881750,71.97,0,0,0,0,0
1565285881765.63,101.96,0,0,0,0,0
1565285881781.25,126.17,0,0,0,0,0
1565285881796.88,145.12,0,0,0,0,0
1565285881812.5,159.51,0,0,0,0,0
1565285881828.13,170.04,0,0,0,0,0
1565285881843.75,177.34,0,0,0,0,0
1565285881859.38,181.81,0,0,0,0,0
1565285881875,183.73,0,0,0,0,0
1565285881890.63,183.33,0,0,0,0,0
1565285881906.25,180.88,0,0,0,0,0
1565285881921.88,176.73,0,0,0,0,0
1565285881937.5,171.29,0,0,0,0,0
1565285881953.13,164.98,0,0,0,0,0
1565285881968.75,158.12,0,0,0,0,0
1565285881984.38,150.98,0,0,0,0,0
1565285882000,143.7,0,0,0,0,0
1565285882015.63,136.34,0,0,0,0,0
1565285882031.25,128.94,0,0,0,0,0
1565285882046.88,121.56,0,0,0,0,0
1565285882062.5,114.26,0,0,0,0,0
1565285882078.13,107.1,0,0,0,0,0
1565285882093.75,100.15,0,0,0,0,0
1565285882109.38,93.49,0,0,0,0,0
1565285882125,87.12,0,0,0,0,0
1565285882140.63,81.08,0,0,0,0,0
1565285882156.25,75.37,0,0,0,0,0
1565285882171.88,70.01,0,0,0,0,0
1565285882187.5,64.99,0,0,0,0,0
1565285882203.13,60.34,0,0,0,0,0
1565285882218.75,56.06,0,0,0,0,0
1565285882234.38,52.15,0,0,0,0,0
1565285882250,48.62,0,0,0,0,0
1565285882265.63,45.45,0,0,0,0,0
1565285882281.25,42.65,0,0,0,0,0
1565285882296.88,40.2,0,0,0,0,0
1565285882312.5,38.09,0,0,0,0,0
1565285882328.13,36.32,0,0,0,0,0
1565285882343.75,34.89,0,0,0,0,0
1565285882359.38,33.8,0,0,0,0,0
1565285882375,33.06,0,0,0,0,0
1565285882390.63,32.65,0,0,0,0,0
1565285882406.25,32.56,0,0,0,0,0
1565285882421.88,32.77,0,0,0,0,0
1565285882437.5,33.24,0,0,0,0,0
1565285882453.13,33.89,0,0,0,0,0
1565285882468.75,34.63,0,0,0,0,0
1565285882484.38,35.33,0,0,0,0,0
1565285882500,35.83,0,0,0,0,0
1565285882515.63,35.96,0,0,0,0,0
1565285882531.25,35.55,0,0,0,0,0
1565285882546.88,34.43,0,0,0,0,0
1565285882562.5,32.5,0,0,0,0,0
1565285882578.13,29.69,0,0,0,0,0
1565285882593.75,26.01,0,0,0,0,0
1565285882609.38,21.5,0,0,0,0,0
1565285882625,16.29,0,0,0,0,0
1565285882640.63,10.6,0,0,0,0,0
1565285882656.25,4.68,0,0,0,0,0
1565285882671.88,-1.23,0,0,0,0,0
1565285882687.5,-6.83,0,0,0,0,0
1565285882703.13,-11.9,0,0,0,0,0
1565285882718.75,-16.21,0,0,0,0,0
1565285882734.38,-19.63,0,0,0,0,0
1565285882750,-22.09,0,0,0,0,0
1565285882765.63,-23.57,0,0,0,0,0
1565285882781.25,-24.11,0,0,0,0,0
1565285882796.88,-23.83,0,0,0,0,0
1565285882812.5,-22.86,0,0,0,0,0
1565285882828.13,-21.34,0,0,0,0,0
1565285882843.75,-19.45,0,0,0,0,0
1565285882859.38,-17.33,0,0,0,0,0
1565285882875,-15.08,0,0,0,0,0
1565285882890.63,-12.8,0,0,0,0,0
1565285882906.25,-10.53,0,0,0,0,0
1565285882921.88,-8.31,0,0,0,0,0
1565285882937.5,-6.16,0,0,0,0,0
1565285882953.13,-4.08,0,0,0,0,0
1565285882968.75,-2.04,0,0,0,0,0
1565285882984.38,0.01,0,0,0,0,0
1565285883000,2.1,0,0,0,0,0
1565285883015.63,4.3,0,0,0,0,0
1565285883031.25,6.63,0,0,0,0,0
1565285883046.88,9.16,0,0,0,0,0
1565285883062.5,11.85,0,0,0,0,0
1565285883078.13,14.69,0,0,0,0,0
1565285883093.75,17.64,0,0,0,0,0
1565285883109.38,20.73,0,0,0,0,0
1565285883125,23.94,0,0,0,0,0
1565285883140.63,27.3,0,0,0,0,0
1565285883156.25,30.82,0,0,0,0,0
1565285883171.88,34.57,0,0,0,0,0
1565285883187.5,38.6,0,0,0,0,0
1565285883203.13,42.84,0,0,0,0,0
1565285883218.75,47.24,0,0,0,0,0
1565285883234.38,51.78,0,0,0,0,0
1565285883250,56.47,0,0,0,0,0
1565285883265.63,61.29,0,0,0,0,0
1565285883281.25,66.27,0,0,0,0,0
1565285883296.88,71.44,0,0,0,0,0
1565285883312.5,76.85,0,0,0,0,0
1565285883328.13,82.6,0,0,0,0,0
1565285883343.75,88.51,0,0,0,0,0
1565285883359.38,94.48,0,0,0,0,0
1565285883375,100.46,0,0,0,0,0
1565285883390.63,106.42,0,0,0,0,0
1565285883406.25,112.35,0,0,0,0,0
1565285883421.88,118.25,0,0,0,0,0
1565285883437.5,124.17,0,0,0,0,0
1565285883453.13,130.11,0,0,0,0,0
1565285883468.75,136.18,0,0,0,0,0
1565285883484.38,142.05,0,0,0,0,0
1565285883500,147.52,0,0,0,0,0
1565285883515.63,152.33,0,0,0,0,0
1565285883531.25,156.25,0,0,0,0,0
1565285883546.88,158.95,0,0,0,0,0
1565285883562.5,160.02,0,0,0,0,0
1565285883578.13,158.92,0,0,0,0,0
1565285883593.75,154.84,0,0,0,0,0
1565285883609.38,149.24,0,0,0,0,0
1565285883625,142.61,0,0,0,0,0
1565285883640.63,135.29,0,0,0,0,0
1565285883656.25,127.5,0,0,0,0,0
1565285883671.88,119.44,0,0,0,0,0
1565285883687.5,111.26,0,0,0,0,0
1565285883703.13,103.12,0,0,0,0,0
1565285883718.75,95.16,0,0,0,0,0
1565285883734.38,87.56,0,0,0,0,0
1565285883750,80.54,0,0,0,0,0
1565285883765.63,73.96,0,0,0,0,0
1565285883781.25,67.76,0,0,0,0,0
1565285883796.88,61.89,0,0,0,0,0
1565285883812.5,56.33,0,0,0,0,0
1565285883828.13,51.08,0,0,0,0,0
1565285883843.75,46.14,0,0,0,0,0
1565285883859.38,41.57,0,0,0,0,0
1565285883875,37.45,0,0,0,0,0
1565285883890.63,33.89,0,0,0,0,0
1565285883906.25,30.72,0,0,0,0,0
1565285883921.88,27.83,0,0,0,0,0
1565285883937.5,25.09,0,0,0,0,0
1565285883953.13,22.41,0,0,0,0,0
1565285883968.75,19.68,0,0,0,0,0
1565285883984.38,16.88,0,0,0,0,0
1565285884000,14.01,0,0,0,0,0
1565285884015.63,11.17,0,0,0,0,0
1565285884031.25,8.51,0,0,0,0,0
1565285884046.88,6,0,0,0,0,0
1565285884062.5,3.65,0,0,0,0,0
1565285884078.13,1.41,0,0,0,0,0
1565285884093.75,-0.74,0,0,0,0,0
1565285884109.38,-2.86,0,0,0,0,0
1565285884125,-4.98,0,0,0,0,0
1565285884140.63,-7.05,0,0,0,0,0
1565285884156.25,-8.97,0,0,0,0,0
1565285884171.88,-10.64,0,0,0,0,0
1565285884187.5,-12.02,0,0,0,0,0
1565285884203.13,-13.2,0,0,0,0,0
1565285884218.75,-14.37,0,0,0,0,0
1565285884234.38,-15.77,0,0,0,0,0
1565285884250,-17.69,0,0,0,0,0
1565285884265.63,-20.26,0,0,0,0,0
1565285884281.25,-23.43,0,0,0,0,0
1565285884296.88,-26.97,0,0,0,0,0
1565285884312.5,-30.57,0,0,0,0,0
1565285884328.13,-34.01,0,0,0,0,0
1565285884343.75,-37.26,0,0,0,0,0
1565285884359.38,-40.6,0,0,0,0,0
1565285884375,-44.45,0,0,0,0,0
1565285884390.63,-49.29,0,0,0,0,0
1565285884406.25,-55.36,0,0,0,0,0
1565285884421.88,-62.6,0,0,0,0,0
1565285884437.5,-70.6,0,0,0,0,0
1565285884453.13,-78.78,0,0,0,0,0
1565285884468.75,-86.73,0,0,0,0,0
1565285884484.38,-94.37,0,0,0,0,0
1565285884500,-102.11,0,0,0,0,0
1565285884515.63,-110.66,0,0,0,0,0
1565285884531.25,-120.75,0,0,0,0,0
1565285884546.88,-132.82,0,0,0,0,0
1565285884562.5,-146.74,0,0,0,0,0
1565285884578.13,-161.94,0,0,0,0,0
1565285884593.75,-177.64,0,0,0,0,0
1565285884609.38,-193.12,0,0,0,0,0
1565285884625,-208.07,0,0,0,0,0
1565285884640.63,-222.67,0,0,0,0,0
1565285884656.25,-237.45,0,0,0,0,0
1565285884671.88,-253.33,0,0,0,0,0
1565285884687.5,-271.47,0,0,0,0,0
1565285884703.13,-293.1,0,0,0,0,0
1565285884718.75,-318.92,0,0,0,0,0
1565285884734.38,-348.39,0,0,0,0,0
1565285884750,-379.12,0,0,0,0,0
1565285884765.63,-406.87,0,0,0,0,0
1565285884781.25,-426.61,0,0,0,0,0
1565285884796.88,-434.1,0,0,0,0,0
1565285884812.5,-427.58,0,0,0,0,0
1565285884828.13,-408.45,1,0,0,0,0
1565285884843.75,-380.74,1,0,0,0,0
1565285884859.38,-349.44,1,0,0,0,0
1565285884875,-318.77,1,0,0,0,0
1565285884890.63,-291.01,1,0,0,0,0
1565285884906.25,-266.59,1,0,0,0,0
1565285884921.88,-244.9,1,0,0,0,0
1565285884937.5,-225.27,1,0,0,0,0
1565285884953.13,-207.53,1,0,0,0,0
1565285884968.75,-191.84,1,0,0,0,0
1565285884984.38,-178.25,1,0,0,0,0
1565285885000,-166.48,1,0,0,0,0
1565285885015.63,-156.03,0,0,0,0,0
1565285885031.25,-146.62,0,0,0,0,0
1565285885046.88,-138.36,0,0,0,0,0
1565285885062.5,-131.61,0,0,0,0,0
1565285885078.13,-126.53,0,0,0,0,0
1565285885093.75,-122.56,0,0,0,0,0
1565285885109.38,-118.19,0,0,0,0,0
1565285885125,-111.38,0,0,0,0,0
1565285885140.63,-100.29,0,0,0,0,0
1565285885156.25,-84.05,0,0,0,0,0
1565285885171.88,-63.18,0,0,0,0,0
1565285885187.5,-39.44,0,0,0,0,0
1565285885203.13,-15.23,0,0,0,0,0
1565285885218.75,7.27,0,0,0,0,0
1565285885234.38,26.61,0,0,0,0,0
1565285885250,42.42,0,0,0,0,0
1565285885265.63,55.09,0,0,0,0,0
1565285885281.25,65.45,0,0,0,0,0
1565285885296.88,74.33,0,0,0,0,0
1565285885312.5,82.34,0,0,0,0,0
1565285885328.13,89.82,0,0,0,0,0
1565285885343.75,96.86,0,0,0,0,0
1565285885359.38,103.37,0,0,0,0,0
1565285885375,109.09,0,0,0,0,0
1565285885390.63,113.6,0,0,0,0,0
1565285885406.25,116.32,0,0,0,0,0
1565285885421.88,116.76,0,0,0,0,0
1565285885437.5,114.7,0,0,0,0,0
1565285885453.13,110.5,0,0,0,0,0
1565285885468.75,104.98,0,0,0,0,0
1565285885484.38,99.31,0,0,0,0,0
1565285885500,94.52,0,0,0,0,0
1565285885515.63,91.28,0,0,0,0,0
1565285885531.25,89.7,0,0,0,0,0
1565285885546.88,89.43,0,0,0,0,0
1565285885562.5,89.92,0,0,0,0,0
1565285885578.13,90.63,0,0,0,0,0
1565285885593.75,91.19,0,0,0,0,0
1565285885609.38,91.47,0,0,0,0,0
1565285885625,91.43,0,0,0,0,0
1565285885640.63,91.13,0,0,0,0,0
1565285885656.25,90.58,0,0,0,0,0
1565285885671.88,89.78,0,0,0,0,0
1565285885687.5,88.7,0,0,0,0,0
1565285885703.13,87.29,0,0,0,0,0
1565285885718.75,85.54,0,0,0,0,0
1565285885734.38,83.4,0,0,0,0,0
1565285885750,80.92,0,0,0,0,0
1565285885765.63,78.25,0,0,0,0,0
1565285885781.25,75.69,0,0,0,0,0
1565285885796.88,73.7,0,0,0,0,0
1565285885812.5,72.88,0,0,0,0,0
1565285885828.13,73.69,0,0,0,0,0
1565285885843.75,76.34,0,0,0,0,0
1565285885859.38,80.5,0,0,0,0,0
1565285885875,85.34,0,0,0,0,0
1565285885890.63,89.71,0,0,0,0,0
1565285885906.25,92.51,0,0,0,0,0
1565285885921.88,93.11,0,0,0,0,0
1565285885937.5,91.67,0,0,0,0,0
1565285885953.13,89.14,0,0,0,0,0
1565285885968.75,86.8,0,0,0,0,0
1565285885984.38,85.8,0,0,0,0,0
1565285886000,86.59,0,0,0,0,0
1565285886015.63,88.82,0,0,0,0,0
1565285886031.25,91.43,0,0,0,0,0
1565285886046.88,93.24,0,0,0,0,0
1565285886062.5,93.42,0,0,0,0,0
1565285886078.13,91.78,0,0,0,0,0
1565285886093.75,88.74,0,0,0,0,0
1565285886109.38,84.9,0,0,0,0,0
1565285886125,80.7,0,0,0,0,0
1565285886140.63,76.22,0,0,0,0,0
1565285886156.25,71.32,0,0,0,0,0
1565285886171.88,66.08,0,0,0,0,0
1565285886187.5,61.19,0,0,0,0,0
1565285886203.13,57.86,0,0,0,0,0
1565285886218.75,57.55,0,0,0,0,0
1565285886234.38,61.21,0,0,0,0,0
1565285886250,68.69,0,0,0,0,0
1565285886265.63,78.59,0,0,0,0,0
1565285886281.25,88.55,0,0,0,0,0
1565285886296.88,96.04,0,0,0,0,0
1565285886312.5,99.09,0,0,0,0,0
1565285886328.13,96.92,0,0,0,0,0
1565285886343.75,89.92,0,0,0,0,0
1565285886359.38,79.31,0,0,0,0,0
1565285886375,66.67,0,0,0,0,0
1565285886390.63,53.38,0,0,0,0,0
1565285886406.25,40.49,0,0,0,0,0
1565285886421.88,28.63,0,0,0,0,0
1565285886437.5,18.22,0,0,0,0,0
1565285886453.13,9.62,0,0,0,0,0
1565285886468.75,3.17,0,0,0,0,0
1565285886484.38,-0.86,0,0,0,0,0
1565285886500,-2.41,0,0,0,0,0
1565285886515.63,-1.78,0,0,0,0,0
1565285886531.25,0.33,0,0,0,0,0
1565285886546.88,2.81,0,0,0,0,0
1565285886562.5,4.34,0,0,0,0,0
1565285886578.13,3.69,0,0,0,0,0
1565285886593.75,0.09,0,0,0,0,0
1565285886609.38,-6.4,0,0,0,0,0
1565285886625,-14.89,0,0,0,0,0
1565285886640.63,-23.81,0,0,0,0,0
1565285886656.25,-31.55,0,0,0,0,0
1565285886671.88,-37.1,0,0,0,0,0
1565285886687.5,-40.5,0,0,0,0,0
1565285886703.13,-42.8,0,0,0,0,0
1565285886718.75,-45.45,0,0,0,0,0
1565285886734.38,-49.49,0,0,0,0,0
1565285886750,-54.9,0,0,0,0,0
1565285886765.63,-60.49,0,0,0,0,0
1565285886781.25,-64.39,0,0,0,0,0
1565285886796.88,-64.89,0,0,0,0,0
1565285886812.5,-61.24,0,0,0,0,0
1565285886828.13,-54.01,0,0,0,0,0
1565285886843.75,-45.05,0,0,0,0,0
1565285886859.38,-36.97,0,0,0,0,0
1565285886875,-32.44,0,0,0,0,0
1565285886890.63,-33.49,0,0,0,0,0
1565285886906.25,-41,0,0,0,0,0
1565285886921.88,-54.39,0,0,0,0,0
1565285886937.5,-71.67,0,0,0,0,0
1565285886953.13,-89.86,0,0,0,0,0
1565285886968.75,-105.63,0,0,0,0,0
1565285886984.38,-116.1,0,0,0,0,0
1565285887000,-119.44,0,0,0,0,0
1565285887015.63,-115.19,0,0,0,0,0
1565285887031.25,-104.23,0,0,0,0,0
1565285887046.88,-88.44,0,0,0,0,0
1565285887062.5,-70.2,0,0,0,0,0
1565285887078.13,-51.79,0,0,0,0,0
1565285887093.75,-34.94,0,0,0,0,0
1565285887109.38,-20.38,0,0,0,0,0
1565285887125,-7.89,0,0,0,0,0
1565285887140.63,3.54,0,0,0,0,0
1565285887156.25,15.18,0,0,0,0,0
1565285887171.88,28.01,0,0,0,0,0
1565285887187.5,42.32,0,0,0,0,0
1565285887203.13,57.59,0,0,0,0,0
1565285887218.75,72.63,0,0,0,0,0
1565285887234.38,85.98,0,0,0,0,0
1565285887250,96.33,0,0,0,0,0
1565285887265.63,102.85,0,0,0,0,0
1565285887281.25,105.34,0,0,0,0,0
1565285887296.88,104.24,0,0,0,0,0
1565285887312.5,100.42,0,0,0,0,0
1565285887328.13,94.9,0,0,0,0,0
1565285887343.75,88.66,0,0,0,0,0
1565285887359.38,82.4,0,0,0,0,0
1565285887375,76.41,0,0,0,0,0
1565285887390.63,70.68,0,0,0,0,0
1565285887406.25,64.93,0,0,0,0,0
1565285887421.88,58.87,0,0,0,0,0
1565285887437.5,52.21,0,0,0,0,0
1565285887453.13,44.88,0,0,0,0,0
1565285887468.75,36.98,0,0,0,0,0
1565285887484.38,28.83,0,0,0,0,0
1565285887500,20.92,0,0,0,0,0
1565285887515.63,13.82,0,0,0,0,0
1565285887531.25,8.03,0,0,0,0,0
1565285887546.88,3.87,0,0,0,0,0
1565285887562.5,1.29,0,0,0,0,0
1565285887578.13,-0.11,0,0,0,0,0
1565285887593.75,-1.01,0,0,0,0,0
1565285887609.38,-2.16,0,0,0,0,0
1565285887625,-4.16,0,0,0,0,0
1565285887640.63,-7.32,0,0,0,0,0
1565285887656.25,-11.55,0,0,0,0,0
1565285887671.88,-16.55,0,0,0,0,0
1565285887687.5,-21.94,0,0,0,0,0
1565285887703.13,-27.45,0,0,0,0,0
1565285887718.75,-32.92,0,0,0,0,0
1565285887734.38,-38.3,0,0,0,0,0
1565285887750,-43.56,0,0,0,0,0
1565285887765.63,-48.61,0,0,0,0,0
1565285887781.25,-53.33,0,0,0,0,0
1565285887796.88,-57.54,0,0,0,0,0
1565285887812.5,-61.02,0,0,0,0,0
1565285887828.13,-63.57,0,0,0,0,0
1565285887843.75,-65.02,0,0,0,0,0
1565285887859.38,-65.21,0,0,0,0,0
1565285887875,-64.06,0,0,0,0,0
1565285887890.63,-61.62,0,0,0,0,0
1565285887906.25,-58.1,0,0,0,0,0
1565285887921.88,-53.82,0,0,0,0,0
1565285887937.5,-49.17,0,0,0,0,0
1565285887953.13,-44.53,0,0,0,0,0
1565285887968.75,-40.13,0,0,0,0,0
1565285887984.38,-36.09,0,0,0,0,0
1565285888000,-32.36,0,0,0,0,0
1565285888015.63,-28.84,0,0,0,0,0
1565285888031.25,-25.44,0,0,0,0,0
1565285888046.88,-22.17,0,0,0,0,0
1565285888062.5,-19.12,0,0,0,0,0
1565285888078.13,-16.46,0,0,0,0,0
1565285888093.75,-14.32,0,0,0,0,0
1565285888109.38,-12.77,0,0,0,0,0
1565285888125,-11.76,0,0,0,0,0
1565285888140.63,-11.15,0,0,0,0,0
1565285888156.25,-10.71,0,0,0,0,0
1565285888171.88,-10.14,0,0,0,0,0
1565285888187.5,-9.02,0,0,0,0,0
1565285888203.13,-6.88,0,0,0,0,0
1565285888218.75,-3.33,0,0,0,0,0
1565285888234.38,1.72,0,0,0,0,0
1565285888250,7.87,0,0,0,0,0
1565285888265.63,14.26,0,0,0,0,0
1565285888281.25,19.71,0,0,0,0,0
1565285888296.88,23.17,0,0,0,0,0
1565285888312.5,23.98,0,0,0,0,0
1565285888328.13,22.1,0,0,0,0,0
1565285888343.75,17.93,0,0,0,0,0
1565285888359.38,12.09,0,0,0,0,0
1565285888375,5.15,0,0,0,0,0
1565285888390.63,-2.56,0,0,0,0,0
1565285888406.25,-10.89,0,0,0,0,0
1565285888421.88,-19.75,0,0,0,0,0
1565285888437.5,-29.1,0,0,0,0,0
1565285888453.13,-38.82,0,0,0,0,0
1565285888468.75,-48.76,0,0,0,0,0
1565285888484.38,-58.62,0,0,0,0,0
1565285888500,-67.76,0,0,0,0,0
1565285888515.63,-75.26,0,0,0,0,0
1565285888531.25,-79.98,0,0,0,0,0
1565285888546.88,-80.99,0,0,0,0,0
1565285888562.5,-77.97,0,0,0,0,0
1565285888578.13,-71.36,0,0,0,0,0
1565285888593.75,-62.19,0,0,0,0,0
1565285888609.38,-51.71,0,0,0,0,0
1565285888625,-40.91,0,0,0,0,0
1565285888640.63,-30.23,0,0,0,0,0
1565285888656.25,-19.63,0,0,0,0,0
1565285888671.88,-8.9,0,0,0,0,0
1565285888687.5,2.12,0,0,0,0,0
1565285888703.13,13.37,0,0,0,0,0
1565285888718.75,24.53,0,0,0,0,0
1565285888734.38,35.19,0,0,0,0,0
1565285888750,44.84,0,0,0,0,0
1565285888765.63,53.02,0,0,0,0,0
1565285888781.25,59.23,0,0,0,0,0
1565285888796.88,63.02,0,0,0,0,0
1565285888812.5,64.15,0,0,0,0,0
1565285888828.13,62.63,0,0,0,0,0
1565285888843.75,58.93,0,0,0,0,0
1565285888859.38,53.9,0,0,0,0,0
1565285888875,48.63,0,0,0,0,0
1565285888890.63,44.17,0,0,0,0,0
1565285888906.25,41.27,0,0,0,0,0
1565285888921.88,40.12,0,0,0,0,0
1565285888937.5,40.3,0,0,0,0,0
1565285888953.13,40.95,0,0,0,0,0
1565285888968.75,41.12,0,0,0,0,0
1565285888984.38,40.17,0,0,0,0,0
1565285889000,37.94,0,0,0,0,0
1565285889015.63,34.72,0,0,0,0,0
1565285889031.25,30.91,0,0,0,0,0
1565285889046.88,26.73,0,0,0,0,0
1565285889062.5,21.94,0,0,0,0,0
1565285889078.13,16.03,0,0,0,0,0
1565285889093.75,8.56,0,0,0,0,0
1565285889109.38,-0.46,0,0,0,0,0
1565285889125,-10.46,0,0,0,0,0
1565285889140.63,-20.37,0,0,0,0,0
1565285889156.25,-28.95,0,0,0,0,0
1565285889171.88,-35.22,0,0,0,0,0
1565285889187.5,-38.59,0,0,0,0,0
1565285889203.13,-38.95,0,0,0,0,0
1565285889218.75,-36.6,0,0,0,0,0
1565285889234.38,-32.08,0,0,0,0,0
1565285889250,-26.09,0,0,0,0,0
1565285889265.63,-19.3,0,0,0,0,0
1565285889281.25,-12.26,0,0,0,0,0
1565285889296.88,-5.22,0,0,0,0,0
1565285889312.5,1.96,0,0,0,0,0
1565285889328.13,9.75,0,0,0,0,0
1565285889343.75,18.74,0,0,0,0,0
1565285889359.38,29.36,0,0,0,0,0
1565285889375,41.49,0,0,0,0,0
1565285889390.63,54.3,0,0,0,0,0
1565285889406.25,66.48,0,0,0,0,0
1565285889421.88,76.56,0,0,0,0,0
1565285889437.5,83.51,0,0,0,0,0
1565285889453.13,87.21,0,0,0,0,0
1565285889468.75,88.58,0,0,0,0,0
1565285889484.38,89.26,0,0,0,0,0
1565285889500,91.06,0,0,0,0,0
1565285889515.63,95.25,0,0,0,0,0
1565285889531.25,102.16,0,0,0,0,0
1565285889546.88,111.11,0,0,0,0,0
1565285889562.5,120.71,0,0,0,0,0
1565285889578.13,129.43,0,0,0,0,0
1565285889593.75,136.09,0,0,0,0,0
1565285889609.38,140.14,0,0,0,0,0
1565285889625,141.52,0,0,0,0,0
1565285889640.63,140.44,0,0,0,0,0
1565285889656.25,137.11,0,0,0,0,0
1565285889671.88,131.59,0,0,0,0,0
1565285889687.5,123.95,0,0,0,0,0
1565285889703.13,114.42,0,0,0,0,0
1565285889718.75,103.5,0,0,0,0,0
1565285889734.38,92,0,0,0,0,0
1565285889750,80.71,0,0,0,0,0
1565285889765.63,70.15,0,0,0,0,0
1565285889781.25,60.33,0,0,0,0,0
1565285889796.88,50.9,0,0,0,0,0
1565285889812.5,41.42,0,0,0,0,0
1565285889828.13,31.72,0,0,0,0,0
1565285889843.75,22.03,0,0,0,0,0
1565285889859.38,12.81,0,0,0,0,0
1565285889875,4.4,0,0,0,0,0
1565285889890.63,-3.22,0,0,0,0,0
1565285889906.25,-10.38,0,0,0,0,0
1565285889921.88,-17.47,0,0,0,0,0
1565285889937.5,-24.63,0,0,0,0,0
1565285889953.13,-31.52,0,0,0,0,0
1565285889968.75,-37.51,0,0,0,0,0
1565285889984.38,-41.86,0,0,0,0,0
1565285890000,-44.08,0,0,0,0,0
1565285890015.63,-44.04,0,0,0,0,0
1565285890031.25,-41.98,0,0,0,0,0
1565285890046.88,-38.35,0,0,0,0,0
1565285890062.5,-33.76,0,0,0,0,0
1565285890078.13,-28.91,0,0,0,0,0
1565285890093.75,-24.5,0,0,0,0,0
1565285890109.38,-21.06,0,0,0,0,0
1565285890125,-18.72,0,0,0,0,0
1565285890140.63,-17.1,0,0,0,0,0
1565285890156.25,-15.47,0,0,0,0,0
1565285890171.88,-13.2,0,0,0,0,0
1565285890187.5,-10.21,0,0,0,0,0
1565285890203.13,-7.21,0,0,0,0,0
1565285890218.75,-5.46,0,0,0,0,0
1565285890234.38,-6.27,0,0,0,0,0
1565285890250,-10.34,0,0,0,0,0
1565285890265.63,-17.44,0,0,0,0,0
1565285890281.25,-26.48,0,0,0,0,0
1565285890296.88,-35.85,0,0,0,0,0
1565285890312.5,-44.03,0,0,0,0,0
1565285890328.13,-50.02,0,0,0,0,0
1565285890343.75,-53.46,0,0,0,0,0
1565285890359.38,-54.58,0,0,0,0,0
1565285890375,-53.99,0,0,0,0,0
1565285890390.63,-52.42,0,0,0,0,0
1565285890406.25,-50.63,0,0,0,0,0
1565285890421.88,-49.3,0,0,0,0,0
1565285890437.5,-48.97,0,0,0,0,0
1565285890453.13,-50.08,0,0,0,0,0
1565285890468.75,-52.93,0,0,0,0,0
1565285890484.38,-57.67,0,0,0,0,0
1565285890500,-64.3,0,0,0,0,0
1565285890515.63,-72.62,0,0,0,0,0
1565285890531.25,-82.25,0,0,0,0,0
1565285890546.88,-92.61,0,0,0,0,0
1565285890562.5,-103.11,0,0,0,0,0
1565285890578.13,-113.14,0,0,0,0,0
1565285890593.75,-122.2,0,0,0,0,0
1565285890609.38,-129.94,0,0,0,0,0
1565285890625,-136.25,0,0,0,0,0
1565285890640.63,-141.17,0,0,0,0,0
1565285890656.25,-144.83,0,0,0,0,0
1565285890671.88,-147.31,0,0,0,0,0
1565285890687.5,-148.55,0,0,0,0,0
1565285890703.13,-148.41,0,0,0,0,0
1565285890718.75,-146.77,0,0,0,0,0
1565285890734.38,-143.76,0,0,0,0,0
1565285890750,-139.84,0,0,0,0,0
1565285890765.63,-135.7,0,0,0,0,0
1565285890781.25,-132.14,0,0,0,0,0
1565285890796.88,-129.74,0,0,0,0,0
1565285890812.5,-128.67,0,0,0,0,0
1565285890828.13,-128.57,0,0,0,0,0
1565285890843.75,-128.64,0,0,0,0,0
1565285890859.38,-127.86,0,0,0,0,0
1565285890875,-125.35,0,0,0,0,0
1565285890890.63,-120.68,0,0,0,0,0
1565285890906.25,-114.09,0,0,0,0,0
1565285890921.88,-106.48,0,0,0,0,0
1565285890937.5,-99.08,0,0,0,0,0
1565285890953.13,-92.99,0,0,0,0,0
1565285890968.75,-88.79,0,0,0,0,0
1565285890984.38,-86.29,0,0,0,0,0
1565285891000,-84.62,0,0,0,0,0
1565285891015.63,-82.4,0,0,0,0,0
1565285891031.25,-77.93,0,0,0,0,0
1565285891046.88,-69.45,0,0,0,0,0
1565285891062.5,-55.32,0,0,0,0,0
1565285891078.13,-34.57,0,0,0,0,0
1565285891093.75,-7.32,0,0,0,0,0
1565285891109.38,24.83,0,0,0,0,0
1565285891125,58.93,0,0,0,0,0
1565285891140.63,91.38,0,0,0,0,0
1565285891156.25,118.96,0,0,0,0,0
1565285891171.88,139.76,0,0,0,0,0
1565285891187.5,153.63,0,0,0,0,0
1565285891203.13,161.83,0,0,0,0,0
1565285891218.75,166.28,0,0,0,0,0
1565285891234.38,168.71,0,0,0,0,0
1565285891250,170.09,0,0,0,0,0
1565285891265.63,170.65,0,0,0,0,0
1565285891281.25,170.21,0,0,0,0,0
1565285891296.88,168.53,0,0,0,0,0
1565285891312.5,165.53,0,0,0,0,0
1565285891328.13,161.16,0,0,0,0,0
1565285891343.75,155.24,0,0,0,0,0
1565285891359.38,147.41,0,0,0,0,0
1565285891375,137.4,0,0,0,0,0
1565285891390.63,125.3,0,0,0,0,0
1565285891406.25,111.8,0,0,0,0,0
1565285891421.88,97.96,0,0,0,0,0
1565285891437.5,84.77,0,0,0,0,0
1565285891453.13,72.54,0,0,0,0,0
1565285891468.75,60.68,0,0,0,0,0
1565285891484.38,47.88,0,0,0,0,0
1565285891500,32.74,0,0,0,0,0
1565285891515.63,14.41,0,0,0,0,0
1565285891531.25,-7.01,0,0,0,0,0
1565285891546.88,-30.67,0,0,0,0,0
1565285891562.5,-55.34,0,0,0,0,0
1565285891578.13,-79.89,0,0,0,0,0
1565285891593.75,-103.38,0,0,0,0,0
1565285891609.38,-124.89,0,0,0,0,0
1565285891625,-143.28,0,0,0,0,0
1565285891640.63,-157.22,0,0,0,0,0
1565285891656.25,-165.47,0,0,0,0,0
1565285891671.88,-167.35,0,0,0,0,0
1565285891687.5,-163.07,0,0,0,0,0
1565285891703.13,-153.58,0,0,0,0,0
1565285891718.75,-140.32,0,0,0,0,0
1565285891734.38,-124.56,0,0,0,0,0
1565285891750,-107.18,0,0,0,0,0
1565285891765.63,-88.58,0,0,0,0,0
1565285891781.25,-68.82,0,0,0,0,0
1565285891796.88,-47.94,0,0,0,0,0
1565285891812.5,-26.22,0,0,0,0,0
1565285891828.13,-4.18,0,0,0,0,0
1565285891843.75,17.38,0,0,0,0,0
1565285891859.38,37.43,0,0,0,0,0
1565285891875,54.78,0,0,0,0,0
1565285891890.63,68.34,0,0,0,0,0
1565285891906.25,77.28,0,0,0,0,0
1565285891921.88,81.36,0,0,0,0,0
1565285891937.5,81.16,0,0,0,0,0
1565285891953.13,78.11,0,0,0,0,0
1565285891968.75,74.31,0,0,0,0,0
1565285891984.38,71.96,0,0,0,0,0
1565285892000,72.57,0,0,0,0,0
1565285892015.63,76.29,0,0,0,0,0
1565285892031.25,81.53,0,0,0,0,0
1565285892046.88,85.21,0,0,0,0,0
1565285892062.5,83.72,0,0,0,0,0
1565285892078.13,74.33,0,0,0,0,0
1565285892093.75,56.36,0,0,0,0,0
1565285892109.38,31.69,0,0,0,0,0
1565285892125,4.23,0,0,0,0,0
1565285892140.63,-21.45,0,0,0,0,0
1565285892156.25,-41.82,0,0,0,0,0
1565285892171.88,-55.32,0,0,0,0,0
1565285892187.5,-62.59,0,0,0,0,0
1565285892203.13,-65.66,0,0,0,0,0
1565285892218.75,-66.83,0,0,0,0,0
1565285892234.38,-67.73,0,0,0,0,0
1565285892250,-69.14,0,0,0,0,0
1565285892265.63,-71.14,0,0,0,0,0
1565285892281.25,-73.44,0,0,0,0,0
1565285892296.88,-75.48,0,0,0,0,0
1565285892312.5,-76.34,0,0,0,0,0
1565285892328.13,-74.73,0,0,0,0,0
1565285892343.75,-69.3,0,0,0,0,0
1565285892359.38,-59.3,0,0,0,0,0
1565285892375,-45.14,0,0,0,0,0
1565285892390.63,-28.53,0,0,0,0,0
1565285892406.25,-11.98,0,0,0,0,0
1565285892421.88,2.19,0,0,0,0,0
1565285892437.5,12.69,0,0,0,0,0
1565285892453.13,19.57,0,0,0,0,0
1565285892468.75,23.92,0,0,0,0,0
1565285892484.38,27.19,0,0,0,0,0
1565285892500,30.43,0,0,0,0,0
1565285892515.63,33.97,0,0,0,0,0
1565285892531.25,37.49,0,0,0,0,0
1565285892546.88,40.29,0,0,0,0,0
1565285892562.5,41.66,0,0,0,0,0
1565285892578.13,41.18,0,0,0,0,0
1565285892593.75,38.86,0,0,0,0,0
1565285892609.38,35.2,0,0,0,0,0
1565285892625,31.1,0,0,0,0,0
1565285892640.63,27.57,0,0,0,0,0
1565285892656.25,25.44,0,0,0,0,0
1565285892671.88,25.19,0,0,0,0,0
1565285892687.5,26.81,0,0,0,0,0
1565285892703.13,29.89,0,0,0,0,0
1565285892718.75,33.73,0,0,0,0,0
1565285892734.38,37.55,0,0,0,0,0
1565285892750,40.66,0,0,0,0,0
1565285892765.63,42.6,0,0,0,0,0
1565285892781.25,43.31,0,0,0,0,0
1565285892796.88,43.2,0,0,0,0,0
1565285892812.5,43.01,0,0,0,0,0
1565285892828.13,43.56,0,0,0,0,0
1565285892843.75,45.53,0,0,0,0,0
1565285892859.38,49.31,0,0,0,0,0
1565285892875,54.99,0,0,0,0,0
1565285892890.63,62.24,0,0,0,0,0
1565285892906.25,70.3,0,0,0,0,0
1565285892921.88,78.07,0,0,0,0,0
1565285892937.5,84.3,0,0,0,0,0
1565285892953.13,88.03,0,0,0,0,0
1565285892968.75,88.91,0,0,0,0,0
1565285892984.38,87.52,0,0,0,0,0
1565285893000,85.1,0,0,0,0,0
1565285893015.63,83.04,0,0,0,0,0
1565285893031.25,82.26,0,0,0,0,0
1565285893046.88,82.8,0,0,0,0,0
1565285893062.5,83.76,0,0,0,0,0
1565285893078.13,83.74,0,0,0,0,0
1565285893093.75,81.33,0,0,0,0,0
1565285893109.38,75.62,0,0,0,0,0
1565285893125,66.46,0,0,0,0,0
1565285893140.63,54.34,0,0,0,0,0
1565285893156.25,40.25,0,0,0,0,0
1565285893171.88,25.26,0,0,0,0,0
1565285893187.5,10.18,0,0,0,0,0
1565285893203.13,-4.69,0,0,0,0,0
1565285893218.75,-19.66,0,0,0,0,0
1565285893234.38,-35.3,0,0,0,0,0
1565285893250,-52.09,0,0,0,0,0
1565285893265.63,-69.9,0,0,0,0,0
1565285893281.25,-88.05,0,0,0,0,0
1565285893296.88,-105.41,0,0,0,0,0
1565285893312.5,-120.88,0,0,0,0,0
1565285893328.13,-133.72,0,0,0,0,0
1565285893343.75,-143.75,0,0,0,0,0
1565285893359.38,-151.2,0,0,0,0,0
1565285893375,-156.52,0,0,0,0,0
1565285893390.63,-160.22,0,0,0,0,0
1565285893406.25,-162.73,0,0,0,0,0
1565285893421.88,-164.22,0,0,0,0,0
1565285893437.5,-164.41,0,0,0,0,0
1565285893453.13,-162.39,0,0,0,0,0
1565285893468.75,-156.74,0,0,0,0,0
1565285893484.38,-145.86,0,0,0,0,0
1565285893500,-128.68,0,0,0,0,0
1565285893515.63,-105.26,0,0,0,0,0
1565285893531.25,-77.05,0,0,0,0,0
1565285893546.88,-46.66,0,0,0,0,0
1565285893562.5,-17.08,0,0,0,0,0
1565285893578.13,9.1,0,0,0,0,0
1565285893593.75,30.33,0,0,0,0,0
1565285893609.38,46.22,0,0,0,0,0
1565285893625,57.29,0,0,0,0,0
1565285893640.63,64.53,0,0,0,0,0
1565285893656.25,69.02,0,0,0,0,0
1565285893671.88,71.7,0,0,0,0,0
1565285893687.5,73.5,0,0,0,0,0
1565285893703.13,75.28,0,0,0,0,0
1565285893718.75,77.71,0,0,0,0,0
1565285893734.38,81,0,0,0,0,0
1565285893750,84.5,0,0,0,0,0
1565285893765.63,86.69,0,0,0,0,0
1565285893781.25,85.62,0,0,0,0,0
1565285893796.88,79.64,0,0,0,0,0
1565285893812.5,68.26,0,0,0,0,0
1565285893828.13,52.59,0,0,0,0,0
1565285893843.75,34.94,0,0,0,0,0
1565285893859.38,18.11,0,0,0,0,0
1565285893875,4.39,0,0,0,0,0
1565285893890.63,-5.07,0,0,0,0,0
1565285893906.25,-10.33,0,0,0,0,0
1565285893921.88,-12.3,0,0,0,0,0
1565285893937.5,-12.15,0,0,0,0,0
1565285893953.13,-10.91,0,0,0,0,0
1565285893968.75,-9.32,0,0,0,0,0
1565285893984.38,-7.72,0,0,0,0,0
1565285894000,-6.22,0,0,0,0,0
1565285894015.63,-4.62,0,0,0,0,0
1565285894031.25,-2.6,0,0,0,0,0
1565285894046.88,0.08,0,0,0,0,0
1565285894062.5,3.47,0,0,0,0,0
1565285894078.13,7.26,0,0,0,0,0
1565285894093.75,10.95,0,0,0,0,0
1565285894109.38,13.96,0,0,0,0,0
1565285894125,15.83,0,0,0,0,0
1565285894140.63,16.19,0,0,0,0,0
1565285894156.25,14.77,0,0,0,0,0
1565285894171.88,11.48,0,0,0,0,0
1565285894187.5,6.54,0,0,0,0,0
1565285894203.13,0.59,0,0,0,0,0
1565285894218.75,-5.38,0,0,0,0,0
1565285894234.38,-10.45,0,0,0,0,0
1565285894250,-14.21,0,0,0,0,0
1565285894265.63,-17.1,0,0,0,0,0
1565285894281.25,-20.2,0,0,0,0,0
1565285894296.88,-24.61,0,0,0,0,0
1565285894312.5,-30.73,0,0,0,0,0
1565285894328.13,-37.84,0,0,0,0,0
1565285894343.75,-44.32,0,0,0,0,0
1565285894359.38,-48.3,0,0,0,0,0
1565285894375,-48.52,0,0,0,0,0
1565285894390.63,-44.77,0,0,0,0,0
1565285894406.25,-38.02,0,0,0,0,0
1565285894421.88,-29.97,0,0,0,0,0
1565285894437.5,-22.49,0,0,0,0,0
1565285894453.13,-17.17,0,0,0,0,0
1565285894468.75,-14.87,0,0,0,0,0
1565285894484.38,-15.66,0,0,0,0,0
1565285894500,-18.81,0,0,0,0,0
1565285894515.63,-23.05,0,0,0,0,0
1565285894531.25,-26.87,0,0,0,0,0
1565285894546.88,-29.02,0,0,0,0,0
1565285894562.5,-28.78,0,0,0,0,0
1565285894578.13,-26.09,0,0,0,0,0
1565285894593.75,-21.36,0,0,0,0,0
1565285894609.38,-15.22,0,0,0,0,0
1565285894625,-8.32,0,0,0,0,0
1565285894640.63,-1.3,0,0,0,0,0
1565285894656.25,5.17,0,0,0,0,0
1565285894671.88,10.38,0,0,0,0,0
1565285894687.5,13.77,0,0,0,0,0
1565285894703.13,15.09,0,0,0,0,0
1565285894718.75,14.59,0,0,0,0,0
1565285894734.38,12.96,0,0,0,0,0
1565285894750,11.09,0,0,0,0,0
1565285894765.63,9.68,0,0,0,0,0
1565285894781.25,9.02,0,0,0,0,0
1565285894796.88,8.93,0,0,0,0,0
1565285894812.5,8.92,0,0,0,0,0
1565285894828.13,8.45,0,0,0,0,0
1565285894843.75,7.2,0,0,0,0,0
1565285894859.38,5.18,0,0,0,0,0
1565285894875,2.69,0,0,0,0,0
1565285894890.63,0.25,0,0,0,0,0
1565285894906.25,-1.6,0,0,0,0,0
1565285894921.88,-2.5,0,0,0,0,0
1565285894937.5,-2.49,0,0,0,0,0
1565285894953.13,-1.96,0,0,0,0,0
1565285894968.75,-1.51,0,0,0,0,0
1565285894984.38,-1.72,0,0,0,0,0
1565285895000,-2.85,0,0,0,0,0
1565285895015.63,-4.75,0,0,0,0,0
1565285895031.25,-6.98,0,0,0,0,0
1565285895046.88,-9.02,0,0,0,0,0
1565285895062.5,-10.59,0,0,0,0,0
1565285895078.13,-11.82,0,0,0,0,0
1565285895093.75,-13.23,0,0,0,0,0
1565285895109.38,-15.6,0,0,0,0,0
1565285895125,-19.75,0,0,0,0,0
1565285895140.63,-26.33,0,0,0,0,0
1565285895156.25,-35.56,0,0,0,0,0
1565285895171.88,-47.13,0,0,0,0,0
1565285895187.5,-59.99,0,0,0,0,0
1565285895203.13,-72.38,0,0,0,0,0
1565285895218.75,-81.99,0,0,0,0,0
1565285895234.38,-86.52,0,0,0,0,0
1565285895250,-84.21,0,0,0,0,0
1565285895265.63,-74.43,0,0,0,0,0
1565285895281.25,-57.96,0,0,0,0,0
1565285895296.88,-36.84,0,0,0,0,0
1565285895312.5,-13.73,0,0,0,0,0
1565285895328.13,8.68,0,0,0,0,0
1565285895343.75,28.43,0,0,0,0,0
1565285895359.38,44.51,0,0,0,0,0
1565285895375,56.91,0,0,0,0,0
1565285895390.63,66.31,0,0,0,0,0
1565285895406.25,73.67,0,0,0,0,0
1565285895421.88,79.92,0,0,0,0,0
1565285895437.5,85.74,0,0,0,0,0
1565285895453.13,91.52,0,0,0,0,0
1565285895468.75,97.37,0,0,0,0,0
1565285895484.38,103.16,0,0,0,0,0
1565285895500,108.49,0,0,0,0,0
1565285895515.63,112.78,0,0,0,0,0
1565285895531.25,115.29,0,0,0,0,0
1565285895546.88,115.27,0,0,0,0,0
1565285895562.5,112.19,0,0,0,0,0
1565285895578.13,106.04,0,0,0,0,0
1565285895593.75,97.32,0,0,0,0,0
1565285895609.38,86.99,0,0,0,0,0
1565285895625,76.09,0,0,0,0,0
1565285895640.63,65.29,0,0,0,0,0
1565285895656.25,54.78,0,0,0,0,0
1565285895671.88,44.26,0,0,0,0,0
1565285895687.5,33.23,0,0,0,0,0
1565285895703.13,21.32,0,0,0,0,0
1565285895718.75,8.56,0,0,0,0,0
1565285895734.38,-4.73,0,0,0,0,0
1565285895750,-18.13,0,0,0,0,0
1565285895765.63,-31.4,0,0,0,0,0
1565285895781.25,-44.54,0,0,0,0,0
1565285895796.88,-57.79,0,0,0,0,0
1565285895812.5,-71.24,0,0,0,0,0
1565285895828.13,-84.57,0,0,0,0,0
1565285895843.75,-96.94,0,0,0,0,0
1565285895859.38,-107.04,0,0,0,0,0
1565285895875,-113.56,0,0,0,0,0
1565285895890.63,-115.53,0,0,0,0,0
1565285895906.25,-112.81,0,0,0,0,0
1565285895921.88,-106.06,0,0,0,0,0
1565285895937.5,-96.52,0,0,0,0,0
1565285895953.13,-85.51,0,0,0,0,0
1565285895968.75,-74.02,0,0,0,0,0
1565285895984.38,-62.63,0,0,0,0,0
1565285896000,-51.6,0,0,0,0,0
1565285896015.63,-41.05,0,0,0,0,0
1565285896031.25,-31,0,0,0,0,0
1565285896046.88,-21.27,0,0,0,0,0
1565285896062.5,-11.19,0,0,0,0,0
1565285896078.13,0.29,0,0,0,0,0
1565285896093.75,14.28,0,0,0,0,0
1565285896109.38,31.41,0,0,0,0,0
1565285896125,51.34,0,0,0,0,0
1565285896140.63,72.61,0,0,0,0,0
1565285896156.25,93.12,0,0,0,0,0
1565285896171.88,110.7,0,0,0,0,0
1565285896187.5,123.68,0,0,0,0,0
1565285896203.13,131.24,0,0,0,0,0
1565285896218.75,133.44,0,0,0,0,0
1565285896234.38,130.97,0,0,0,0,0
1565285896250,124.97,0,0,0,0,0
1565285896265.63,116.83,0,0,0,0,0
1565285896281.25,108.03,0,0,0,0,0
1565285896296.88,99.81,0,0,0,0,0
1565285896312.5,92.87,0,0,0,0,0
1565285896328.13,87.23,0,0,0,0,0
1565285896343.75,82.2,0,0,0,0,0
1565285896359.38,76.67,0,0,0,0,0
1565285896375,69.53,0,0,0,0,0
1565285896390.63,60.13,0,0,0,0,0
1565285896406.25,48.52,0,0,0,0,0
1565285896421.88,35.47,0,0,0,0,0
1565285896437.5,22.34,0,0,0,0,0
1565285896453.13,10.59,0,0,0,0,0
1565285896468.75,1.45,0,0,0,0,0
1565285896484.38,-4.55,0,0,0,0,0
1565285896500,-7.83,0,0,0,0,0
1565285896515.63,-9.65,0,0,0,0,0
1565285896531.25,-11.66,0,0,0,0,0
1565285896546.88,-15.37,0,0,0,0,0
1565285896562.5,-21.53,0,0,0,0,0
1565285896578.13,-30.02,0,0,0,0,0
1565285896593.75,-39.93,0,0,0,0,0
1565285896609.38,-50.1,0,0,0,0,0
1565285896625,-59.64,0,0,0,0,0
1565285896640.63,-68.31,0,0,0,0,0
1565285896656.25,-76.55,0,0,0,0,0
1565285896671.88,-85.23,0,0,0,0,0
1565285896687.5,-95.15,0,0,0,0,0
1565285896703.13,-106.65,0,0,0,0,0
1565285896718.75,-119.35,0,0,0,0,0
1565285896734.38,-132.22,0,0,0,0,0
1565285896750,-143.92,0,0,0,0,0
1565285896765.63,-153.26,0,0,0,0,0
1565285896781.25,-159.62,0,0,0,0,0
1565285896796.88,-163.21,0,0,0,0,0
1565285896812.5,-165.03,0,0,0,0,0
1565285896828.13,-166.51,0,0,0,0,0
1565285896843.75,-169.04,0,0,0,0,0
1565285896859.38,-173.33,0,0,0,0,0
1565285896875,-179,0,0,0,0,0
1565285896890.63,-184.51,0,0,0,0,0
1565285896906.25,-187.47,0,0,0,0,0
1565285896921.88,-185.33,0,0,0,0,0
1565285896937.5,-176.17,0,0,0,0,0
1565285896953.13,-159.35,0,0,0,0,0
1565285896968.75,-135.79,0,0,0,0,0
1565285896984.38,-107.71,0,0,0,0,0
1565285897000,-78,0,0,0,0,0
1565285897015.63,-49.42,0,0,0,0,0
1565285897031.25,-24.07,0,0,0,0,0
1565285897046.88,-3.08,0,0,0,0,0
1565285897062.5,13.34,0,0,0,0,0
1565285897078.13,25.7,0,0,0,0,0
1565285897093.75,34.83,0,0,0,0,0
1565285897109.38,41.72,0,0,0,0,0
1565285897125,47.23,0,0,0,0,0
1565285897140.63,52.02,0,0,0,0,0
1565285897156.25,56.43,0,0,0,0,0
1565285897171.88,60.52,0,0,0,0,0
1565285897187.5,64.18,0,0,0,0,0
1565285897203.13,67.25,0,0,0,0,0
1565285897218.75,69.64,0,0,0,0,0
1565285897234.38,71.33,0,0,0,0,0
1565285897250,72.45,0,0,0,0,0
1565285897265.63,73.12,0,0,0,0,0
1565285897281.25,73.55,0,0,0,0,0
1565285897296.88,73.93,0,0,0,0,0
1565285897312.5,74.45,0,0,0,0,0
1565285897328.13,75.12,0,0,0,0,0
1565285897343.75,75.79,0,0,0,0,0
1565285897359.38,76.04,0,0,0,0,0
1565285897375,75.3,0,0,0,0,0
1565285897390.63,73.08,0,0,0,0,0
1565285897406.25,69.18,0,0,0,0,0
1565285897421.88,63.88,0,0,0,0,0
1565285897437.5,57.84,0,0,0,0,0
1565285897453.13,51.84,0,0,0,0,0
1565285897468.75,46.47,0,0,0,0,0
1565285897484.38,41.85,0,0,0,0,0
1565285897500,37.6,0,0,0,0,0
1565285897515.63,33.09,0,0,0,0,0
1565285897531.25,27.72,0,0,0,0,0
1565285897546.88,21.2,0,0,0,0,0
1565285897562.5,13.71,0,0,0,0,0
1565285897578.13,5.78,0,0,0,0,0
1565285897593.75,-1.95,0,0,0,0,0
1565285897609.38,-9.02,0,0,0,0,0
1565285897625,-15.28,0,0,0,0,0
1565285897640.63,-20.97,0,0,0,0,0
1565285897656.25,-26.57,0,0,0,0,0
1565285897671.88,-32.68,0,0,0,0,0
1565285897687.5,-39.86,0,0,0,0,0
1565285897703.13,-48.39,0,0,0,0,0
1565285897718.75,-58.12,0,0,0,0,0
1565285897734.38,-68.26,0,0,0,0,0
1565285897750,-77.32,0,0,0,0,0
1565285897765.63,-83.3,0,0,0,0,0
1565285897781.25,-84.21,0,0,0,0,0
1565285897796.88,-78.72,0,0,0,0,0
1565285897812.5,-66.68,0,0,0,0,0
1565285897828.13,-49.25,0,0,0,0,0
1565285897843.75,-28.59,0,0,0,0,0
1565285897859.38,-7.17,0,0,0,0,0
1565285897875,12.82,0,0,0,0,0
1565285897890.63,29.97,0,0,0,0,0
1565285897906.25,43.69,0,0,0,0,0
1565285897921.88,53.98,0,0,0,0,0
1565285897937.5,61.25,0,0,0,0,0
1565285897953.13,66.12,0,0,0,0,0
1565285897968.75,69.29,0,0,0,0,0
1565285897984.38,71.59,0,0,0,0,0
1565285898000,73.76,0,0,0,0,0
1565285898015.63,76.28,0,0,0,0,0
1565285898031.25,79.26,0,0,0,0,0
1565285898046.88,82.38,0,0,0,0,0
1565285898062.5,85.08,0,0,0,0,0
1565285898078.13,86.73,0,0,0,0,0
1565285898093.75,86.95,0,0,0,0,0
1565285898109.38,85.68,0,0,0,0,0
1565285898125,83.25,0,0,0,0,0
1565285898140.63,80.24,0,0,0,0,0
1565285898156.25,77.24,0,0,0,0,0
1565285898171.88,74.69,0,0,0,0,0
1565285898187.5,72.71,0,0,0,0,0
1565285898203.13,71.09,0,0,0,0,0
1565285898218.75,69.41,0,0,0,0,0
1565285898234.38,67.28,0,0,0,0,0
1565285898250,64.55,0,0,0,0,0
1565285898265.63,61.44,0,0,0,0,0
1565285898281.25,58.45,0,0,0,0,0
1565285898296.88,56.14,0,0,0,0,0
1565285898312.5,54.85,0,0,0,0,0
1565285898328.13,54.4,0,0,0,0,0
1565285898343.75,54.07,0,0,0,0,0
1565285898359.38,52.84,0,0,0,0,0
1565285898375,49.76,0,0,0,0,0
1565285898390.63,44.38,0,0,0,0,0
1565285898406.25,36.9,0,0,0,0,0
1565285898421.88,28.17,0,0,0,0,0
1565285898437.5,19.22,0,0,0,0,0
1565285898453.13,10.91,0,0,0,0,0
1565285898468.75,3.51,0,0,0,0,0
1565285898484.38,-3.23,0,0,0,0,0
1565285898500,-10,0,0,0,0,0
1565285898515.63,-17.52,0,0,0,0,0
1565285898531.25,-26.42,0,0,0,0,0
1565285898546.88,-37.04,0,0,0,0,0
1565285898562.5,-49.39,0,0,0,0,0
1565285898578.13,-62.96,0,0,0,0,0
1565285898593.75,-76.52,0,0,0,0,0
1565285898609.38,-88.12,0,0,0,0,0
1565285898625,-95.35,0,0,0,0,0
1565285898640.63,-96.04,0,0,0,0,0
1565285898656.25,-89.07,0,0,0,0,0
1565285898671.88,-74.92,0,0,0,0,0
1565285898687.5,-55.67,0,0,0,0,0
1565285898703.13,-34.33,0,0,0,0,0
1565285898718.75,-13.82,0,0,0,0,0
1565285898734.38,3.84,0,0,0,0,0
1565285898750,17.94,0,0,0,0,0
1565285898765.63,28.84,0,0,0,0,0
1565285898781.25,37.32,0,0,0,0,0
1565285898796.88,44.05,0,0,0,0,0
1565285898812.5,49.24,0,0,0,0,0
1565285898828.13,52.82,0,0,0,0,0
1565285898843.75,54.71,0,0,0,0,0
1565285898859.38,55.19,0,0,0,0,0
1565285898875,55.05,0,0,0,0,0
1565285898890.63,55.39,0,0,0,0,0
1565285898906.25,57.32,0,0,0,0,0
1565285898921.88,61.61,0,0,0,0,0
1565285898937.5,68.52,0,0,0,0,0
1565285898953.13,77.87,0,0,0,0,0
1565285898968.75,89.21,0,0,0,0,0
1565285898984.38,102.07,0,0,0,0,0
1565285899000,115.9,0,0,0,0,0
1565285899015.63,130.09,0,0,0,0,0
1565285899031.25,143.69,0,0,0,0,0
1565285899046.88,155.48,0,0,0,0,0
1565285899062.5,164.17,0,0,0,0,0
1565285899078.13,168.75,0,0,0,0,0
1565285899093.75,168.86,0,0,0,0,0
1565285899109.38,164.87,0,0,0,0,0
1565285899125,157.69,0,0,0,0,0
1565285899140.63,148.41,0,0,0,0,0
1565285899156.25,137.88,0,0,0,0,0
1565285899171.88,126.49,0,0,0,0,0
1565285899187.5,114.18,0,0,0,0,0
1565285899203.13,100.64,0,0,0,0,0
1565285899218.75,85.54,0,0,0,0,0
1565285899234.38,68.69,0,0,0,0,0
1565285899250,50.27,0,0,0,0,0
1565285899265.63,30.71,0,0,0,0,0
1565285899281.25,10.7,0,0,0,0,0
1565285899296.88,-9.03,0,0,0,0,0
1565285899312.5,-27.94,0,0,0,0,0
1565285899328.13,-45.94,0,0,0,0,0
1565285899343.75,-63.49,0,0,0,0,0
1565285899359.38,-81.4,0,0,0,0,0
1565285899375,-100.56,0,0,0,0,0
1565285899390.63,-121.49,0,0,0,0,0
1565285899406.25,-144.06,0,0,0,0,0
1565285899421.88,-167.39,0,0,0,0,0
1565285899437.5,-189.98,0,0,0,0,0
1565285899453.13,-209.94,0,0,0,0,0
1565285899468.75,-225.19,0,0,0,0,0
1565285899484.38,-233.81,0,0,0,0,0
1565285899500,-234.3,0,0,0,0,0
1565285899515.63,-226.01,0,0,0,0,0
1565285899531.25,-209.45,0,0,0,0,0
1565285899546.88,-186.35,0,0,0,0,0
1565285899562.5,-159.43,0,0,0,0,0
1565285899578.13,-131.8,0,0,0,0,0
1565285899593.75,-106.29,0,0,0,0,0
1565285899609.38,-84.87,0,0,0,0,0
1565285899625,-68.39,0,0,0,0,0
1565285899640.63,-56.55,0,0,0,0,0
1565285899656.25,-48.22,0,0,0,0,0
1565285899671.88,-41.79,0,0,0,0,0
1565285899687.5,-35.59,0,0,0,0,0
1565285899703.13,-28.17,0,0,0,0,0
1565285899718.75,-18.53,0,0,0,0,0
1565285899734.38,-6.28,0,0,0,0,0
1565285899750,8.33,0,0,0,0,0
1565285899765.63,24.58,0,0,0,0,0
1565285899781.25,41.35,0,0,0,0,0
1565285899796.88,57.48,0,0,0,0,0
1565285899812.5,72,0,0,0,0,0
1565285899828.13,84.43,0,0,0,0,0
1565285899843.75,94.82,0,0,0,0,0
1565285899859.38,103.68,0,0,0,0,0
1565285899875,111.7,0,0,0,0,0
1565285899890.63,119.32,0,0,0,0,0
1565285899906.25,126.45,0,0,0,0,0
1565285899921.88,132.38,0,0,0,0,0
1565285899937.5,136.1,0,0,0,0,0
1565285899953.13,136.71,0,0,0,0,0
1565285899968.75,133.98,0,0,0,0,0
1565285899984.38,128.51,0,0,0,0,0
1565285900000,121.65,0,0,0,0,0
1565285900015.63,115.07,0,0,0,0,0
1565285900031.25,110.17,0,0,0,0,0
1565285900046.88,107.71,0,0,0,0,0
1565285900062.5,107.58,0,0,0,0,0
1565285900078.13,109.14,0,0,0,0,0
1565285900093.75,111.53,0,0,0,0,0
1565285900109.38,114.05,0,0,0,0,0
1565285900125,116.25,0,0,0,0,0
1565285900140.63,117.8,0,0,0,0,0
1565285900156.25,118.29,0,0,0,0,0
1565285900171.88,117.09,0,0,0,0,0
1565285900187.5,113.68,0,0,0,0,0
1565285900203.13,107.92,0,0,0,0,0
1565285900218.75,100.35,0,0,0,0,0
1565285900234.38,91.97,0,0,0,0,0
1565285900250,83.73,0,0,0,0,0
1565285900265.63,75.87,0,0,0,0,0
1565285900281.25,67.9,0,0,0,0,0
1565285900296.88,59.14,0,0,0,0,0
1565285900312.5,49.4,0,0,0,0,0
1565285900328.13,39.3,0,0,0,0,0
1565285900343.75,29.79,0,0,0,0,0
1565285900359.38,21.08,0,0,0,0,0
1565285900375,11.95,0,0,0,0,0
1565285900390.63,0.03,0,0,0,0,0
1565285900406.25,-17.04,0,0,0,0,0
1565285900421.88,-39.94,0,0,0,0,0
1565285900437.5,-66.94,0,0,0,0,0
1565285900453.13,-94.5,0,0,0,0,0
1565285900468.75,-118.89,0,0,0,0,0
1565285900484.38,-137.81,0,0,0,0,0
1565285900500,-150.94,0,0,0,0,0
1565285900515.63,-159.07,0,0,0,0,0
1565285900531.25,-162.87,0,0,0,0,0
1565285900546.88,-162.13,0,0,0,0,0
1565285900562.5,-156.16,0,0,0,0,0
1565285900578.13,-145.1,0,0,0,0,0
1565285900593.75,-130.88,0,0,0,0,0
1565285900609.38,-117.17,0,0,0,0,0
1565285900625,-108,0,0,0,0,0
1565285900640.63,-105.9,0,0,0,0,0
1565285900656.25,-110.77,0,0,0,0,0
1565285900671.88,-120.09,0,0,0,0,0
1565285900687.5,-129.99,0,0,0,0,0
1565285900703.13,-137.01,0,0,0,0,0
1565285900718.75,-139.27,0,0,0,0,0
1565285900734.38,-136.77,0,0,0,0,0
1565285900750,-130.75,0,0,0,0,0
1565285900765.63,-122.93,0,0,0,0,0
1565285900781.25,-114.76,0,0,0,0,0
1565285900796.88,-107.2,0,0,0,0,0
1565285900812.5,-100.72,0,0,0,0,0
1565285900828.13,-95.47,0,0,0,0,0
1565285900843.75,-91.34,0,0,0,0,0
1565285900859.38,-87.99,0,0,0,0,0
1565285900875,-84.95,0,0,0,0,0
1565285900890.63,-81.69,0,0,0,0,0
1565285900906.25,-77.75,0,0,0,0,0
1565285900921.88,-72.95,0,0,0,0,0
1565285900937.5,-67.4,0,0,0,0,0
1565285900953.13,-61.54,0,0,0,0,0
1565285900968.75,-56.09,0,0,0,0,0
1565285900984.38,-51.89,0,0,0,0,0
1565285901000,-49.59,0,0,0,0,0
1565285901015.63,-49.31,0,0,0,0,0
1565285901031.25,-50.34,0,0,0,0,0
1565285901046.88,-51.18,0,0,0,0,0
1565285901062.5,-49.88,0,0,0,0,0
1565285901078.13,-44.84,0,0,0,0,0
1565285901093.75,-35.43,0,0,0,0,0
1565285901109.38,-22.4,0,0,0,0,0
1565285901125,-7.59,0,0,0,0,0
1565285901140.63,6.77,0,0,0,0,0
1565285901156.25,18.98,0,0,0,0,0
1565285901171.88,28.37,0,0,0,0,0
1565285901187.5,35.34,0,0,0,0,0
1565285901203.13,40.77,0,0,0,0,0
1565285901218.75,45.4,0,0,0,0,0
1565285901234.38,49.44,0,0,0,0,0
1565285901250,52.55,0,0,0,0,0
1565285901265.63,54.18,0,0,0,0,0
1565285901281.25,54.04,0,0,0,0,0
1565285901296.88,52.33,0,0,0,0,0
1565285901312.5,49.74,0,0,0,0,0
1565285901328.13,47.21,0,0,0,0,0
1565285901343.75,45.63,0,0,0,0,0
1565285901359.38,45.59,0,0,0,0,0
1565285901375,47.35,0,0,0,0,0
1565285901390.63,50.78,0,0,0,0,0
1565285901406.25,55.44,0,0,0,0,0
1565285901421.88,60.61,0,0,0,0,0
1565285901437.5,65.4,0,0,0,0,0
1565285901453.13,68.93,0,0,0,0,0
1565285901468.75,70.47,0,0,0,0,0
1565285901484.38,69.67,0,0,0,0,0
1565285901500,66.62,0,0,0,0,0
1565285901515.63,61.86,0,0,0,0,0
1565285901531.25,56.23,0,0,0,0,0
1565285901546.88,50.65,0,0,0,0,0
1565285901562.5,45.94,0,0,0,0,0
1565285901578.13,42.62,0,0,0,0,0
1565285901593.75,40.83,0,0,0,0,0
1565285901609.38,40.35,0,0,0,0,0
1565285901625,40.71,0,0,0,0,0
1565285901640.63,41.35,0,0,0,0,0
1565285901656.25,41.74,0,0,0,0,0
1565285901671.88,41.41,0,0,0,0,0
1565285901687.5,40.08,0,0,0,0,0
1565285901703.13,37.5,0,0,0,0,0
1565285901718.75,33.52,0,0,0,0,0
1565285901734.38,27.98,0,0,0,0,0
1565285901750,20.81,0,0,0,0,0
1565285901765.63,12.09,0,0,0,0,0
1565285901781.25,2.15,0,0,0,0,0
1565285901796.88,-8.33,0,0,0,0,0
1565285901812.5,-18.35,0,0,0,0,0
1565285901828.13,-26.69,0,0,0,0,0
1565285901843.75,-32.19,0,0,0,0,0
1565285901859.38,-34.11,0,0,0,0,0
1565285901875,-32.41,0,0,0,0,0
1565285901890.63,-27.92,0,0,0,0,0
1565285901906.25,-22.16,0,0,0,0,0
1565285901921.88,-16.89,0,0,0,0,0
1565285901937.5,-13.44,0,0,0,0,0
1565285901953.13,-12.33,0,0,0,0,0
1565285901968.75,-13.15,0,0,0,0,0
1565285901984.38,-15,0,0,0,0,0
1565285902000,-16.96,0,0,0,0,0
1565285902015.63,-18.48,0,0,0,0,0
1565285902031.25,-19.37,0,0,0,0,0
1565285902046.88,-19.51,0,0,0,0,0
1565285902062.5,-18.47,0,0,0,0,0
1565285902078.13,-15.49,0,0,0,0,0
1565285902093.75,-9.82,0,0,0,0,0
1565285902109.38,-1.28,0,0,0,0,0
1565285902125,9.43,0,0,0,0,0
1565285902140.63,20.77,0,0,0,0,0
1565285902156.25,31.03,0,0,0,0,0
1565285902171.88,38.93,0,0,0,0,0
1565285902187.5,44.2,0,0,0,0,0
1565285902203.13,47.41,0,0,0,0,0
1565285902218.75,49.53,0,0,0,0,0
1565285902234.38,51.19,0,0,0,0,0
1565285902250,52.51,0,0,0,0,0
1565285902265.63,53.11,0,0,0,0,0
1565285902281.25,52.52,0,0,0,0,0
1565285902296.88,50.7,0,0,0,0,0
1565285902312.5,48.19,0,0,0,0,0
1565285902328.13,45.94,0,0,0,0,0
1565285902343.75,44.81,0,0,0,0,0
1565285902359.38,45.1,0,0,0,0,0
1565285902375,46.26,0,0,0,0,0
1565285902390.63,47.15,0,0,0,0,0
1565285902406.25,46.51,0,0,0,0,0
1565285902421.88,43.44,0,0,0,0,0
1565285902437.5,37.91,0,0,0,0,0
1565285902453.13,30.59,0,0,0,0,0
1565285902468.75,22.66,0,0,0,0,0
1565285902484.38,15.27,0,0,0,0,0
1565285902500,9.16,0,0,0,0,0
1565285902515.63,4.39,0,0,0,0,0
1565285902531.25,0.52,0,0,0,0,0
1565285902546.88,-3.15,0,0,0,0,0
1565285902562.5,-7.18,0,0,0,0,0
1565285902578.13,-11.74,0,0,0,0,0
1565285902593.75,-16.61,0,0,0,0,0
1565285902609.38,-21.32,0,0,0,0,0
1565285902625,-25.33,0,0,0,0,0
1565285902640.63,-28.3,0,0,0,0,0
1565285902656.25,-30.14,0,0,0,0,0
1565285902671.88,-31.06,0,0,0,0,0
1565285902687.5,-31.5,0,0,0,0,0
1565285902703.13,-32.01,0,0,0,0,0
1565285902718.75,-33.04,0,0,0,0,0
1565285902734.38,-34.76,0,0,0,0,0
1565285902750,-36.93,0,0,0,0,0
1565285902765.63,-38.94,0,0,0,0,0
1565285902781.25,-39.88,0,0,0,0,0
1565285902796.88,-38.95,0,0,0,0,0
1565285902812.5,-35.7,0,0,0,0,0
1565285902828.13,-30.16,0,0,0,0,0
1565285902843.75,-22.8,0,0,0,0,0
1565285902859.38,-14.37,0,0,0,0,0
1565285902875,-5.74,0,0,0,0,0
1565285902890.63,2.28,0,0,0,0,0
1565285902906.25,9.01,0,0,0,0,0
1565285902921.88,13.93,0,0,0,0,0
1565285902937.5,16.84,0,0,0,0,0
1565285902953.13,17.83,0,0,0,0,0
1565285902968.75,17.28,0,0,0,0,0
1565285902984.38,15.62,0,0,0,0,0
1565285903000,13.26,0,0,0,0,0
1565285903015.63,10.37,0,0,0,0,0
1565285903031.25,7.01,0,0,0,0,0
1565285903046.88,3.24,0,0,0,0,0
1565285903062.5,-0.69,0,0,0,0,0
1565285903078.13,-4.33,0,0,0,0,0
1565285903093.75,-7.11,0,0,0,0,0
1565285903109.38,-8.64,0,0,0,0,0
1565285903125,-8.88,0,0,0,0,0
1565285903140.63,-8.11,0,0,0,0,0
1565285903156.25,-6.87,0,0,0,0,0
1565285903171.88,-5.61,0,0,0,0,0
1565285903187.5,-4.51,0,0,0,0,0
1565285903203.13,-3.53,0,0,0,0,0
1565285903218.75,-2.5,0,0,0,0,0
1565285903234.38,-1.44,0,0,0,0,0
1565285903250,-0.56,0,0,0,0,0
1565285903265.63,-0.27,0,0,0,0,0
1565285903281.25,-0.93,0,0,0,0,0
1565285903296.88,-2.58,0,0,0,0,0
1565285903312.5,-4.98,0,0,0,0,0
1565285903328.13,-7.66,0,0,0,0,0
1565285903343.75,-10.18,0,0,0,0,0
1565285903359.38,-12.28,0,0,0,0,0
1565285903375,-13.91,0,0,0,0,0
1565285903390.63,-15.1,0,0,0,0,0
1565285903406.25,-15.84,0,0,0,0,0
1565285903421.88,-16.09,0,0,0,0,0
1565285903437.5,-15.81,0,0,0,0,0
1565285903453.13,-15.18,0,0,0,0,0
1565285903468.75,-14.54,0,0,0,0,0
1565285903484.38,-14.31,0,0,0,0,0
1565285903500,-14.69,0,0,0,0,0
1565285903515.63,-15.53,0,0,0,0,0
1565285903531.25,-16.29,0,0,0,0,0
1565285903546.88,-16.28,0,0,0,0,0
1565285903562.5,-14.99,0,0,0,0,0
1565285903578.13,-12.27,0,0,0,0,0
1565285903593.75,-8.4,0,0,0,0,0
1565285903609.38,-3.91,0,0,0,0,0
1565285903625,0.68,0,0,0,0,0
1565285903640.63,4.98,0,0,0,0,0
1565285903656.25,8.75,0,0,0,0,0
1565285903671.88,11.9,0,0,0,0,0
1565285903687.5,14.29,0,0,0,0,0
1565285903703.13,15.85,0,0,0,0,0
1565285903718.75,16.55,0,0,0,0,0
1565285903734.38,16.56,0,0,0,0,0
1565285903750,16.17,0,0,0,0,0
1565285903765.63,15.73,0,0,0,0,0
1565285903781.25,15.44,0,0,0,0,0
1565285903796.88,15.26,0,0,0,0,0
1565285903812.5,14.97,0,0,0,0,0
1565285903828.13,14.33,0,0,0,0,0
1565285903843.75,13.24,0,0,0,0,0
1565285903859.38,11.9,0,0,0,0,0
1565285903875,10.59,0,0,0,0,0
1565285903890.63,9.52,0,0,0,0,0
1565285903906.25,8.61,0,0,0,0,0
1565285903921.88,7.46,0,0,0,0,0
1565285903937.5,5.52,0,0,0,0,0
1565285903953.13,2.45,0,0,0,0,0
1565285903968.75,-1.68,0,0,0,0,0
1565285903984.38,-6.23,0,0,0,0,0
1565285904000,-10.27,0,0,0,0,0
1565285904015.63,-12.95,0,0,0,0,0
1565285904031.25,-13.75,0,0,0,0,0
1565285904046.88,-12.77,0,0,0,0,0
1565285904062.5,-10.53,0,0,0,0,0
1565285904078.13,-7.78,0,0,0,0,0
1565285904093.75,-5.11,0,0,0,0,0
1565285904109.38,-2.78,0,0,0,0,0
1565285904125,-0.72,0,0,0,0,0
1565285904140.63,1.28,0,0,0,0,0
1565285904156.25,3.32,0,0,0,0,0
1565285904171.88,5.28,0,0,0,0,0
1565285904187.5,6.81,0,0,0,0,0
1565285904203.13,7.57,0,0,0,0,0
1565285904218.75,7.44,0,0,0,0,0
1565285904234.38,6.7,0,0,0,0,0
1565285904250,5.88,0,0,0,0,0
1565285904265.63,5.49,0,0,0,0,0
1565285904281.25,5.8,0,0,0,0,0
1565285904296.88,6.85,0,0,0,0,0
1565285904312.5,8.69,0,0,0,0,0
1565285904328.13,11.84,0,0,0,0,0
1565285904343.75,17.25,0,0,0,0,0
1565285904359.38,25.89,0,0,0,0,0
1565285904375,38.04,0,0,0,0,0
1565285904390.63,52.73,0,0,0,0,0
1565285904406.25,67.86,0,0,0,0,0
1565285904421.88,80.93,0,0,0,0,0
1565285904437.5,90.03,0,0,0,0,0
1565285904453.13,94.51,0,0,0,0,0
1565285904468.75,94.92,0,0,0,0,0
1565285904484.38,92.39,0,0,0,0,0
1565285904500,87.98,0,0,0,0,0
1565285904515.63,82.27,0,0,0,0,0
1565285904531.25,75.57,0,0,0,0,0
1565285904546.88,68.26,0,0,0,0,0
1565285904562.5,61.04,0,0,0,0,0
1565285904578.13,54.72,0,0,0,0,0
1565285904593.75,49.85,0,0,0,0,0
1565285904609.38,46.32,0,0,0,0,0
1565285904625,43.37,0,0,0,0,0
1565285904640.63,39.97,0,0,0,0,0
1565285904656.25,35.33,0,0,0,0,0
1565285904671.88,29.23,0,0,0,0,0
1565285904687.5,22.13,0,0,0,0,0
1565285904703.13,14.82,0,0,0,0,0
1565285904718.75,8.1,0,0,0,0,0
1565285904734.38,2.43,0,0,0,0,0
1565285904750,-2.21,0,0,0,0,0
1565285904765.63,-6.17,0,0,0,0,0
1565285904781.25,-9.94,0,0,0,0,0
1565285904796.88,-13.92,0,0,0,0,0
1565285904812.5,-18.4,0,0,0,0,0
1565285904828.13,-23.62,0,0,0,0,0
1565285904843.75,-29.87,0,0,0,0,0
1565285904859.38,-37.4,0,0,0,0,0
1565285904875,-46.2,0,0,0,0,0
1565285904890.63,-55.75,0,0,0,0,0
1565285904906.25,-65.09,0,0,0,0,0
1565285904921.88,-73.09,0,0,0,0,0
1565285904937.5,-78.9,0,0,0,0,0
1565285904953.13,-82.2,0,0,0,0,0
1565285904968.75,-83.15,0,0,0,0,0
1565285904984.38,-81.91,0,0,0,0,0
1565285905000,-78.39,0,0,0,0,0
1565285905015.63,-72.21,0,0,0,0,0
1565285905031.25,-63.11,0,0,0,0,0
1565285905046.88,-51.41,0,0,0,0,0
1565285905062.5,-38.26,0,0,0,0,0
1565285905078.13,-25.34,0,0,0,0,0
1565285905093.75,-14.23,0,0,0,0,0
1565285905109.38,-5.8,0,0,0,0,0
1565285905125,0.13,0,0,0,0,0
1565285905140.63,4.53,0,0,0,0,0
1565285905156.25,8.58,0,0,0,0,0
1565285905171.88,12.96,0,0,0,0,0
1565285905187.5,17.53,0,0,0,0,0
1565285905203.13,21.36,0,0,0,0,0
1565285905218.75,23.19,0,0,0,0,0
1565285905234.38,22,0,0,0,0,0
1565285905250,17.51,0,0,0,0,0
1565285905265.63,10.36,0,0,0,0,0
1565285905281.25,1.77,0,0,0,0,0
1565285905296.88,-6.86,0,0,0,0,0
1565285905312.5,-14.54,0,0,0,0,0
1565285905328.13,-21.01,0,0,0,0,0
1565285905343.75,-26.68,0,0,0,0,0
1565285905359.38,-32.27,0,0,0,0,0
1565285905375,-38.45,0,0,0,0,0
1565285905390.63,-45.56,0,0,0,0,0
1565285905406.25,-53.51,0,0,0,0,0
1565285905421.88,-62.05,0,0,0,0,0
1565285905437.5,-70.75,0,0,0,0,0
1565285905453.13,-79.17,0,0,0,0,0
1565285905468.75,-86.73,0,0,0,0,0
1565285905484.38,-92.78,0,0,0,0,0
1565285905500,-96.67,0,0,0,0,0
1565285905515.63,-97.96,0,0,0,0,0
1565285905531.25,-96.62,0,0,0,0,0
1565285905546.88,-93.03,0,0,0,0,0
1565285905562.5,-87.95,0,0,0,0,0
1565285905578.13,-82.2,0,0,0,0,0
1565285905593.75,-76.52,0,0,0,0,0
1565285905609.38,-71.28,0,0,0,0,0
1565285905625,-66.43,0,0,0,0,0
1565285905640.63,-61.56,0,0,0,0,0
1565285905656.25,-56.08,0,0,0,0,0
1565285905671.88,-49.52,0,0,0,0,0
1565285905687.5,-41.81,0,0,0,0,0
1565285905703.13,-33.38,0,0,0,0,0
1565285905718.75,-25,0,0,0,0,0
1565285905734.38,-17.54,0,0,0,0,0
1565285905750,-11.58,0,0,0,0,0
1565285905765.63,-7.24,0,0,0,0,0
1565285905781.25,-4.16,0,0,0,0,0
1565285905796.88,-1.81,0,0,0,0,0
1565285905812.5,0.3,0,0,0,0,0
1565285905828.13,2.4,0,0,0,0,0
1565285905843.75,4.47,0,0,0,0,0
1565285905859.38,6.4,0,0,0,0,0
1565285905875,8.05,0,0,0,0,0
1565285905890.63,9.24,0,0,0,0,0
1565285905906.25,9.7,0,0,0,0,0
1565285905921.88,9.11,0,0,0,0,0
1565285905937.5,7.18,0,0,0,0,0
1565285905953.13,3.85,0,0,0,0,0
1565285905968.75,-0.64,0,0,0,0,0
1565285905984.38,-5.77,0,0,0,0,0
1565285906000,-10.86,0,0,0,0,0
1565285906015.63,-15.3,0,0,0,0,0
1565285906031.25,-18.58,0,0,0,0,0
1565285906046.88,-20.41,0,0,0,0,0
1565285906062.5,-20.66,0,0,0,0,0
1565285906078.13,-19.44,0,0,0,0,0
1565285906093.75,-16.99,0,0,0,0,0
1565285906109.38,-13.7,0,0,0,0,0
1565285906125,-10.03,0,0,0,0,0
1565285906140.63,-6.36,0,0,0,0,0
1565285906156.25,-2.92,0,0,0,0,0
1565285906171.88,0.12,0,0,0,0,0
1565285906187.5,2.56,0,0,0,0,0
1565285906203.13,4.08,0,0,0,0,0
1565285906218.75,4.2,0,0,0,0,0
1565285906234.38,2.52,0,0,0,0,0
1565285906250,-0.99,0,0,0,0,0
1565285906265.63,-5.89,0,0,0,0,0
1565285906281.25,-11.3,0,0,0,0,0
1565285906296.88,-16.26,0,0,0,0,0
1565285906312.5,-20.2,0,0,0,0,0
1565285906328.13,-23.25,0,0,0,0,0
1565285906343.75,-26.22,0,0,0,0,0
1565285906359.38,-30.2,0,0,0,0,0
1565285906375,-36.03,0,0,0,0,0
1565285906390.63,-43.91,0,0,0,0,0
1565285906406.25,-53.32,0,0,0,0,0
1565285906421.88,-63.39,0,0,0,0,0
1565285906437.5,-73.3,0,0,0,0,0
1565285906453.13,-82.54,0,0,0,0,0
1565285906468.75,-90.99,0,0,0,0,0
1565285906484.38,-98.57,0,0,0,0,0
1565285906500,-105.01,0,0,0,0,0
1565285906515.63,-109.72,0,0,0,0,0
1565285906531.25,-112,0,0,0,0,0
1565285906546.88,-111.32,0,0,0,0,0
1565285906562.5,-107.63,0,0,0,0,0
1565285906578.13,-101.44,0,0,0,0,0
1565285906593.75,-93.61,0,0,0,0,0
1565285906609.38,-85.1,0,0,0,0,0
1565285906625,-76.67,0,0,0,0,0
1565285906640.63,-68.81,0,0,0,0,0
1565285906656.25,-61.78,0,0,0,0,0
1565285906671.88,-55.69,0,0,0,0,0
1565285906687.5,-50.54,0,0,0,0,0
1565285906703.13,-45.92,0,0,0,0,0
1565285906718.75,-40.71,0,0,0,0,0
1565285906734.38,-33.12,0,0,0,0,0
1565285906750,-21.18,0,0,0,0,0
1565285906765.63,-3.73,0,0,0,0,0
1565285906781.25,18.65,0,0,0,0,0
1565285906796.88,43.34,0,0,0,0,0
1565285906812.5,66.46,0,0,0,0,0
1565285906828.13,84.35,0,0,0,0,0
1565285906843.75,95.12,0,0,0,0,0
1565285906859.38,99.25,0,0,0,0,0
1565285906875,99.04,0,0,0,0,0
1565285906890.63,97.13,0,0,0,0,0
1565285906906.25,95.09,0,0,0,0,0
1565285906921.88,92.94,0,0,0,0,0
1565285906937.5,89.76,0,0,0,0,0
1565285906953.13,84.96,0,0,0,0,0
1565285906968.75,79.15,0,0,0,0,0
1565285906984.38,74.2,0,0,0,0,0
1565285907000,72.31,0,0,0,0,0
1565285907015.63,74.72,0,0,0,0,0
1565285907031.25,81.1,0,0,0,0,0
1565285907046.88,89.61,0,0,0,0,0
1565285907062.5,97.9,0,0,0,0,0
1565285907078.13,104.26,0,0,0,0,0
1565285907093.75,108.23,0,0,0,0,0
1565285907109.38,110.56,0,0,0,0,0
1565285907125,112.54,0,0,0,0,0
1565285907140.63,115,0,0,0,0,0
1565285907156.25,117.97,0,0,0,0,0
1565285907171.88,120.64,0,0,0,0,0
1565285907187.5,121.94,0,0,0,0,0
1565285907203.13,121.2,0,0,0,0,0
1565285907218.75,118.56,0,0,0,0,0
1565285907234.38,114.87,0,0,0,0,0
1565285907250,111.26,0,0,0,0,0
1565285907265.63,108.69,0,0,0,0,0
1565285907281.25,107.47,0,0,0,0,0
1565285907296.88,107.18,0,0,0,0,0
1565285907312.5,106.88,0,0,0,0,0
1565285907328.13,105.47,0,0,0,0,0
1565285907343.75,102.16,0,0,0,0,0
1565285907359.38,96.75,0,0,0,0,0
1565285907375,89.79,0,0,0,0,0
1565285907390.63,82.42,0,0,0,0,0
1565285907406.25,75.93,0,0,0,0,0
1565285907421.88,71.33,0,0,0,0,0
1565285907437.5,68.98,0,0,0,0,0
1565285907453.13,68.61,0,0,0,0,0
1565285907468.75,69.48,0,0,0,0,0
1565285907484.38,70.68,0,0,0,0,0
1565285907500,71.37,0,0,0,0,0
1565285907515.63,70.73,0,0,0,0,0
1565285907531.25,67.9,0,0,0,0,0
1565285907546.88,62.08,0,0,0,0,0
1565285907562.5,52.74,0,0,0,0,0
1565285907578.13,40.01,0,0,0,0,0
1565285907593.75,24.86,0,0,0,0,0
1565285907609.38,8.87,0,0,0,0,0
1565285907625,-6.21,0,0,0,0,0
1565285907640.63,-19.07,0,0,0,0,0
1565285907656.25,-29.17,0,0,0,0,0
1565285907671.88,-36.78,0,0,0,0,0
1565285907687.5,-42.57,0,0,0,0,0
1565285907703.13,-47.32,0,0,0,0,0
1565285907718.75,-51.51,0,0,0,0,0
1565285907734.38,-55.33,0,0,0,0,0
1565285907750,-58.83,0,0,0,0,0
1565285907765.63,-61.97,0,0,0,0,0
1565285907781.25,-64.71,0,0,0,0,0
1565285907796.88,-66.92,0,0,0,0,0
1565285907812.5,-68.38,0,0,0,0,0
1565285907828.13,-68.87,0,0,0,0,0
1565285907843.75,-68.32,0,0,0,0,0
1565285907859.38,-67.03,0,0,0,0,0
1565285907875,-65.61,0,0,0,0,0
1565285907890.63,-64.87,0,0,0,0,0
1565285907906.25,-65.49,0,0,0,0,0
1565285907921.88,-67.82,0,0,0,0,0
1565285907937.5,-71.67,0,0,0,0,0
1565285907953.13,-76.36,0,0,0,0,0
1565285907968.75,-80.82,0,0,0,0,0
1565285907984.38,-83.8,0,0,0,0,0
1565285908000,-84.12,0,0,0,0,0
1565285908015.63,-80.8,0,0,0,0,0
1565285908031.25,-73.38,0,0,0,0,0
1565285908046.88,-62.08,0,0,0,0,0
1565285908062.5,-47.79,0,0,0,0,0
1565285908078.13,-31.92,0,0,0,0,0
1565285908093.75,-16.07,0,0,0,0,0
1565285908109.38,-1.58,0,0,0,0,0
1565285908125,10.67,0,0,0,0,0
1565285908140.63,20.39,0,0,0,0,0
1565285908156.25,27.73,0,0,0,0,0
1565285908171.88,33.12,0,0,0,0,0
1565285908187.5,37.12,0,0,0,0,0
1565285908203.13,40.32,0,0,0,0,0
1565285908218.75,43.28,0,0,0,0,0
1565285908234.38,46.42,0,0,0,0,0
1565285908250,49.82,0,0,0,0,0
1565285908265.63,53.21,0,0,0,0,0
1565285908281.25,56.07,0,0,0,0,0
1565285908296.88,57.88,0,0,0,0,0
1565285908312.5,58.48,0,0,0,0,0
1565285908328.13,58.25,0,0,0,0,0
1565285908343.75,58.14,0,0,0,0,0
1565285908359.38,59.41,0,0,0,0,0
1565285908375,63.23,0,0,0,0,0
1565285908390.63,70.21,0,0,0,0,0
1565285908406.25,80.03,0,0,0,0,0
1565285908421.88,91.38,0,0,0,0,0
1565285908437.5,102.18,0,0,0,0,0
1565285908453.13,110.15,0,0,0,0,0
1565285908468.75,113.45,0,0,0,0,0
1565285908484.38,111.2,0,0,0,0,0
1565285908500,103.54,0,0,0,0,0
1565285908515.63,91.33,0,0,0,0,0
1565285908531.25,75.71,0,0,0,0,0
1565285908546.88,57.72,0,0,0,0,0
1565285908562.5,38.21,0,0,0,0,0
1565285908578.13,17.99,0,0,0,0,0
1565285908593.75,-2,0,0,0,0,0
1565285908609.38,-20.68,0,0,0,0,0
1565285908625,-36.95,0,0,0,0,0
1565285908640.63,-49.95,0,0,0,0,0
1565285908656.25,-59.26,0,0,0,0,0
1565285908671.88,-64.9,0,0,0,0,0
1565285908687.5,-67.27,0,0,0,0,0
1565285908703.13,-66.94,0,0,0,0,0
1565285908718.75,-64.62,0,0,0,0,0
1565285908734.38,-60.93,0,0,0,0,0
1565285908750,-56.32,0,0,0,0,0
1565285908765.63,-51.11,0,0,0,0,0
1565285908781.25,-45.47,0,0,0,0,0
1565285908796.88,-39.51,0,0,0,0,0
1565285908812.5,-33.46,0,0,0,0,0
1565285908828.13,-27.62,0,0,0,0,0
1565285908843.75,-22.31,0,0,0,0,0
1565285908859.38,-17.8,0,0,0,0,0
1565285908875,-14.22,0,0,0,0,0
1565285908890.63,-11.67,0,0,0,0,0
1565285908906.25,-10.38,0,0,0,0,0
1565285908921.88,-10.64,0,0,0,0,0
1565285908937.5,-12.82,0,0,0,0,0
1565285908953.13,-16.98,0,0,0,0,0
1565285908968.75,-22.84,0,0,0,0,0
1565285908984.38,-29.7,0,0,0,0,0
1565285909000,-36.73,0,0,0,0,0
1565285909015.63,-43.2,0,0,0,0,0
1565285909031.25,-48.75,0,0,0,0,0
1565285909046.88,-53.41,0,0,0,0,0
1565285909062.5,-57.36,0,0,0,0,0
1565285909078.13,-60.61,0,0,0,0,0
1565285909093.75,-62.79,0,0,0,0,0
1565285909109.38,-63.17,0,0,0,0,0
1565285909125,-60.87,0,0,0,0,0
1565285909140.63,-55.35,0,0,0,0,0
1565285909156.25,-46.65,0,0,0,0,0
1565285909171.88,-35.55,0,0,0,0,0
1565285909187.5,-23.3,0,0,0,0,0
1565285909203.13,-11.29,0,0,0,0,0
1565285909218.75,-0.68,0,0,0,0,0
1565285909234.38,7.79,0,0,0,0,0
1565285909250,13.82,0,0,0,0,0
1565285909265.63,17.47,0,0,0,0,0
1565285909281.25,19.06,0,0,0,0,0
1565285909296.88,19.21,0,0,0,0,0
1565285909312.5,18.69,0,0,0,0,0
1565285909328.13,18.29,0,0,0,0,0
1565285909343.75,18.48,0,0,0,0,0
1565285909359.38,19.19,0,0,0,0,0
1565285909375,19.74,0,0,0,0,0
1565285909390.63,19.16,0,0,0,0,0
1565285909406.25,16.63,0,0,0,0,0
1565285909421.88,11.93,0,0,0,0,0
1565285909437.5,5.53,0,0,0,0,0
1565285909453.13,-1.66,0,0,0,0,0
1565285909468.75,-8.66,0,0,0,0,0
1565285909484.38,-14.81,0,0,0,0,0
1565285909500,-19.89,0,0,0,0,0
1565285909515.63,-24.01,0,0,0,0,0
1565285909531.25,-27.42,0,0,0,0,0
1565285909546.88,-30.4,0,0,0,0,0
1565285909562.5,-33.21,0,0,0,0,0
1565285909578.13,-36,0,0,0,0,0
1565285909593.75,-38.77,0,0,0,0,0
1565285909609.38,-41.28,0,0,0,0,0
1565285909625,-42.95,0,0,0,0,0
1565285909640.63,-43.14,0,0,0,0,0
1565285909656.25,-41.33,0,0,0,0,0
1565285909671.88,-37.5,0,0,0,0,0
1565285909687.5,-32.25,0,0,0,0,0
1565285909703.13,-26.62,0,0,0,0,0
1565285909718.75,-21.72,0,0,0,0,0
1565285909734.38,-18.33,0,0,0,0,0
1565285909750,-16.68,0,0,0,0,0
1565285909765.63,-16.53,0,0,0,0,0
1565285909781.25,-17.41,0,0,0,0,0
1565285909796.88,-18.86,0,0,0,0,0
1565285909812.5,-20.63,0,0,0,0,0
1565285909828.13,-22.69,0,0,0,0,0
1565285909843.75,-25.13,0,0,0,0,0
1565285909859.38,-28.11,0,0,0,0,0
1565285909875,-31.81,0,0,0,0,0
1565285909890.63,-36.35,0,0,0,0,0
1565285909906.25,-41.73,0,0,0,0,0
1565285909921.88,-47.63,0,0,0,0,0
1565285909937.5,-53.35,0,0,0,0,0
1565285909953.13,-57.83,0,0,0,0,0
1565285909968.75,-59.73,0,0,0,0,0
1565285909984.38,-57.84,0,0,0,0,0
1565285910000,-51.35,0,0,0,0,0
1565285910015.63,-40.08,0,0,0,0,0
1565285910031.25,-24.66,0,0,0,0,0
1565285910046.88,-6.36,0,0,0,0,0
1565285910062.5,12.98,0,0,0,0,0
1565285910078.13,31.35,0,0,0,0,0
1565285910093.75,46.87,0,0,0,0,0
1565285910109.38,58.18,0,0,0,0,0
1565285910125,64.66,0,0,0,0,0
1565285910140.63,66.63,0,0,0,0,0
1565285910156.25,65.14,0,0,0,0,0
1565285910171.88,61.76,0,0,0,0,0
1565285910187.5,58.06,0,0,0,0,0
1565285910203.13,55.28,0,0,0,0,0
1565285910218.75,53.96,0,0,0,0,0
1565285910234.38,53.91,0,0,0,0,0
1565285910250,54.21,0,0,0,0,0
1565285910265.63,53.54,0,0,0,0,0
1565285910281.25,50.56,0,0,0,0,0
1565285910296.88,44.39,0,0,0,0,0
1565285910312.5,35.1,0,0,0,0,0
1565285910328.13,23.72,0,0,0,0,0
1565285910343.75,12.03,0,0,0,0,0
1565285910359.38,1.93,0,0,0,0,0
1565285910375,-5.34,0,0,0,0,0
1565285910390.63,-9.63,0,0,0,0,0
1565285910406.25,-11.87,0,0,0,0,0
1565285910421.88,-13.54,0,0,0,0,0
1565285910437.5,-15.93,0,0,0,0,0
1565285910453.13,-19.63,0,0,0,0,0
1565285910468.75,-24.44,0,0,0,0,0
1565285910484.38,-29.66,0,0,0,0,0
1565285910500,-34.45,0,0,0,0,0
1565285910515.63,-38.05,0,0,0,0,0
1565285910531.25,-39.72,0,0,0,0,0
1565285910546.88,-38.56,0,0,0,0,0
1565285910562.5,-33.65,0,0,0,0,0
1565285910578.13,-24.39,0,0,0,0,0
1565285910593.75,-11.01,0,0,0,0,0
1565285910609.38,5.28,0,0,0,0,0
1565285910625,22.52,0,0,0,0,0
1565285910640.63,38.79,0,0,0,0,0
1565285910656.25,52.83,0,0,0,0,0
1565285910671.88,64.36,0,0,0,0,0
1565285910687.5,73.84,0,0,0,0,0
1565285910703.13,81.8,0,0,0,0,0
1565285910718.75,88.39,0,0,0,0,0
1565285910734.38,93.25,0,0,0,0,0
1565285910750,95.8,0,0,0,0,0
1565285910765.63,95.63,0,0,0,0,0
1565285910781.25,92.73,0,0,0,0,0
1565285910796.88,87.29,0,0,0,0,0
1565285910812.5,79.34,0,0,0,0,0
1565285910828.13,68.6,0,0,0,0,0
1565285910843.75,54.59,0,0,0,0,0
1565285910859.38,37.03,0,0,0,0,0
1565285910875,16.39,0,0,0,0,0
1565285910890.63,-5.95,0,0,0,0,0
1565285910906.25,-27.94,0,0,0,0,0
1565285910921.88,-47.46,0,0,0,0,0
1565285910937.5,-62.86,0,0,0,0,0
1565285910953.13,-73.43,0,0,0,0,0
1565285910968.75,-79.33,0,0,0,0,0
1565285910984.38,-81.41,0,0,0,0,0
1565285911000,-80.73,0,0,0,0,0
1565285911015.63,-78.23,0,0,0,0,0
1565285911031.25,-74.53,0,0,0,0,0
1565285911046.88,-69.92,0,0,0,0,0
1565285911062.5,-64.65,0,0,0,0,0
1565285911078.13,-58.97,0,0,0,0,0
1565285911093.75,-53.29,0,0,0,0,0
1565285911109.38,-48.08,0,0,0,0,0
1565285911125,-43.77,0,0,0,0,0
1565285911140.63,-40.63,0,0,0,0,0
1565285911156.25,-38.66,0,0,0,0,0
1565285911171.88,-37.72,0,0,0,0,0
1565285911187.5,-37.59,0,0,0,0,0
1565285911203.13,-38.02,0,0,0,0,0
1565285911218.75,-38.72,0,0,0,0,0
1565285911234.38,-39.26,0,0,0,0,0
1565285911250,-39.16,0,0,0,0,0
1565285911265.63,-37.9,0,0,0,0,0
1565285911281.25,-35.24,0,0,0,0,0
1565285911296.88,-31.32,0,0,0,0,0
1565285911312.5,-26.7,0,0,0,0,0
1565285911328.13,-22.13,0,0,0,0,0
1565285911343.75,-18.25,0,0,0,0,0
1565285911359.38,-15.29,0,0,0,0,0
1565285911375,-13.1,0,0,0,0,0
1565285911390.63,-11.3,0,0,0,0,0
1565285911406.25,-9.47,0,0,0,0,0
1565285911421.88,-7.35,0,0,0,0,0
1565285911437.5,-4.91,0,0,0,0,0
1565285911453.13,-2.15,0,0,0,0,0
1565285911468.75,0.89,0,0,0,0,0
1565285911484.38,4.21,0,0,0,0,0
1565285911500,7.77,0,0,0,0,0
1565285911515.63,11.4,0,0,0,0,0
1565285911531.25,14.86,0,0,0,0,0
1565285911546.88,17.86,0,0,0,0,0
1565285911562.5,20.25,0,0,0,0,0
1565285911578.13,22.06,0,0,0,0,0
1565285911593.75,23.47,0,0,0,0,0
1565285911609.38,24.7,0,0,0,0,0
1565285911625,25.91,0,0,0,0,0
1565285911640.63,27.12,0,0,0,0,0
1565285911656.25,28.21,0,0,0,0,0
1565285911671.88,28.99,0,0,0,0,0
1565285911687.5,29.29,0,0,0,0,0
1565285911703.13,28.96,0,0,0,0,0
1565285911718.75,27.95,0,0,0,0,0
1565285911734.38,26.27,0,0,0,0,0
1565285911750,23.99,0,0,0,0,0
1565285911765.63,21.21,0,0,0,0,0
1565285911781.25,18.08,0,0,0,0,0
1565285911796.88,14.67,0,0,0,0,0
1565285911812.5,11,0,0,0,0,0
1565285911828.13,7.02,0,0,0,0,0
1565285911843.75,2.69,0,0,0,0,0
1565285911859.38,-1.89,0,0,0,0,0
1565285911875,-6.36,0,0,0,0,0
1565285911890.63,-10.05,0,0,0,0,0
1565285911906.25,-12.13,0,0,0,0,0
1565285911921.88,-11.8,0,0,0,0,0
1565285911937.5,-8.52,0,0,0,0,0
1565285911953.13,-2.27,0,0,0,0,0
1565285911968.75,6.56,0,0,0,0,0
1565285911984.38,17.22,0,0,0,0,0
1565285912000,28.83,0,0,0,0,0
1565285912015.63,40.52,0,0,0,0,0
1565285912031.25,51.51,0,0,0,0,0
1565285912046.88,61.06,0,0,0,0,0
1565285912062.5,68.43,0,0,0,0,0
1565285912078.13,72.92,0,0,0,0,0
1565285912093.75,73.97,0,0,0,0,0
1565285912109.38,71.44,0,0,0,0,0
1565285912125,65.67,0,0,0,0,0
1565285912140.63,57.52,0,0,0,0,0
1565285912156.25,48.24,0,0,0,0,0
1565285912171.88,39.01,0,0,0,0,0
1565285912187.5,30.73,0,0,0,0,0
1565285912203.13,23.73,0,0,0,0,0
1565285912218.75,17.84,0,0,0,0,0
1565285912234.38,12.67,0,0,0,0,0
1565285912250,7.88,0,0,0,0,0
1565285912265.63,3.39,0,0,0,0,0
1565285912281.25,-0.57,0,0,0,0,0
1565285912296.88,-3.66,0,0,0,0,0
1565285912312.5,-5.64,0,0,0,0,0
1565285912328.13,-6.55,0,0,0,0,0
1565285912343.75,-6.79,0,0,0,0,0
1565285912359.38,-7.02,0,0,0,0,0
1565285912375,-8,0,0,0,0,0
1565285912390.63,-10.48,0,0,0,0,0
1565285912406.25,-15.09,0,0,0,0,0
1565285912421.88,-22.24,0,0,0,0,0
1565285912437.5,-31.84,0,0,0,0,0
1565285912453.13,-43.11,0,0,0,0,0
1565285912468.75,-54.5,0,0,0,0,0
1565285912484.38,-63.96,0,0,0,0,0
1565285912500,-69.43,0,0,0,0,0
1565285912515.63,-69.58,0,0,0,0,0
1565285912531.25,-64.4,0,0,0,0,0
1565285912546.88,-55.33,0,0,0,0,0
1565285912562.5,-44.94,0,0,0,0,0
1565285912578.13,-36.09,0,0,0,0,0
1565285912593.75,-30.99,0,0,0,0,0
1565285912609.38,-30.24,0,0,0,0,0
1565285912625,-32.71,0,0,0,0,0
1565285912640.63,-35.86,0,0,0,0,0
1565285912656.25,-36.68,0,0,0,0,0
1565285912671.88,-32.72,0,0,0,0,0
1565285912687.5,-22.81,0,0,0,0,0
1565285912703.13,-7.14,0,0,0,0,0
1565285912718.75,12.95,0,0,0,0,0
1565285912734.38,35.7,0,0,0,0,0
1565285912750,59.22,0,0,0,0,0
1565285912765.63,81.76,0,0,0,0,0
1565285912781.25,101.66,0,0,0,0,0
1565285912796.88,117.45,0,0,0,0,0
1565285912812.5,128.12,0,0,0,0,0
1565285912828.13,133.46,0,0,0,0,0
1565285912843.75,134.34,0,0,0,0,0
1565285912859.38,132.52,0,0,0,0,0
1565285912875,130.03,0,0,0,0,0
1565285912890.63,128.35,0,0,0,0,0
1565285912906.25,127.86,0,0,0,0,0
1565285912921.88,127.8,0,0,0,0,0
1565285912937.5,126.76,0,0,0,0,0
1565285912953.13,123.37,0,0,0,0,0
1565285912968.75,116.93,0,0,0,0,0
1565285912984.38,107.58,0,0,0,0,0
1565285913000,96.16,0,0,0,0,0
1565285913015.63,83.86,0,0,0,0,0
1565285913031.25,71.72,0,0,0,0,0
1565285913046.88,60.41,0,0,0,0,0
1565285913062.5,50.14,0,0,0,0,0
1565285913078.13,40.65,0,0,0,0,0
1565285913093.75,31.45,0,0,0,0,0
1565285913109.38,21.95,0,0,0,0,0
1565285913125,11.66,0,0,0,0,0
1565285913140.63,0.41,0,0,0,0,0
1565285913156.25,-11.56,0,0,0,0,0
1565285913171.88,-23.52,0,0,0,0,0
1565285913187.5,-34.43,0,0,0,0,0
1565285913203.13,-43.25,0,0,0,0,0
1565285913218.75,-49.31,0,0,0,0,0
1565285913234.38,-52.55,0,0,0,0,0
1565285913250,-53.54,0,0,0,0,0
1565285913265.63,-53.15,0,0,0,0,0
1565285913281.25,-52.19,0,0,0,0,0
1565285913296.88,-51.1,0,0,0,0,0
1565285913312.5,-49.92,0,0,0,0,0
1565285913328.13,-48.52,0,0,0,0,0
1565285913343.75,-46.91,0,0,0,0,0
1565285913359.38,-45.4,0,0,0,0,0
1565285913375,-44.47,0,0,0,0,0
1565285913390.63,-44.56,0,0,0,0,0
1565285913406.25,-45.94,0,0,0,0,0
1565285913421.88,-48.58,0,0,0,0,0
1565285913437.5,-52.39,0,0,0,0,0
1565285913453.13,-57.28,0,0,0,0,0
1565285913468.75,-63.2,0,0,0,0,0
1565285913484.38,-69.92,0,0,0,0,0
1565285913500,-76.87,0,0,0,0,0
1565285913515.63,-83.15,0,0,0,0,0
1565285913531.25,-87.78,0,0,0,0,0
1565285913546.88,-90.19,0,0,0,0,0
1565285913562.5,-90.37,0,0,0,0,0
1565285913578.13,-88.82,0,0,0,0,0
1565285913593.75,-86.16,0,0,0,0,0
1565285913609.38,-82.71,0,0,0,0,0
1565285913625,-78.3,0,0,0,0,0
1565285913640.63,-72.5,0,0,0,0,0
1565285913656.25,-65.04,0,0,0,0,0
1565285913671.88,-56.17,0,0,0,0,0
1565285913687.5,-46.62,0,0,0,0,0
1565285913703.13,-37.38,0,0,0,0,0
1565285913718.75,-29.31,0,0,0,0,0
1565285913734.38,-22.82,0,0,0,0,0
1565285913750,-18.01,0,0,0,0,0
1565285913765.63,-14.74,0,0,0,0,0
1565285913781.25,-12.91,0,0,0,0,0
1565285913796.88,-12.41,0,0,0,0,0
1565285913812.5,-13.06,0,0,0,0,0
1565285913828.13,-14.36,0,0,0,0,0
1565285913843.75,-15.57,0,0,0,0,0
1565285913859.38,-15.79,0,0,0,0,0
1565285913875,-14.26,0,0,0,0,0
1565285913890.63,-10.58,0,0,0,0,0
1565285913906.25,-4.81,0,0,0,0,0
1565285913921.88,2.46,0,0,0,0,0
1565285913937.5,10.21,0,0,0,0,0
1565285913953.13,17.15,0,0,0,0,0
1565285913968.75,22.12,0,0,0,0,0
1565285913984.38,24.42,0,0,0,0,0
1565285914000,24.2,0,0,0,0,0
1565285914015.63,22.42,0,0,0,0,0
1565285914031.25,20.39,0,0,0,0,0
1565285914046.88,19.18,0,0,0,0,0
1565285914062.5,19.05,0,0,0,0,0
1565285914078.13,19.4,0,0,0,0,0
1565285914093.75,19.14,0,0,0,0,0
1565285914109.38,17.28,0,0,0,0,0
1565285914125,13.46,0,0,0,0,0
1565285914140.63,8.03,0,0,0,0,0
1565285914156.25,1.74,0,0,0,0,0
1565285914171.88,-4.62,0,0,0,0,0
1565285914187.5,-10.54,0,0,0,0,0
1565285914203.13,-15.83,0,0,0,0,0
1565285914218.75,-20.55,0,0,0,0,0
1565285914234.38,-24.9,0,0,0,0,0
1565285914250,-29.16,0,0,0,0,0
1565285914265.63,-33.65,0,0,0,0,0
1565285914281.25,-38.71,0,0,0,0,0
1565285914296.88,-44.44,0,0,0,0,0
1565285914312.5,-50.64,0,0,0,0,0
1565285914328.13,-56.74,0,0,0,0,0
1565285914343.75,-62.02,0,0,0,0,0
1565285914359.38,-65.93,0,0,0,0,0
1565285914375,-68.3,0,0,0,0,0
1565285914390.63,-69.45,0,0,0,0,0
1565285914406.25,-69.95,0,0,0,0,0
1565285914421.88,-70.35,0,0,0,0,0
1565285914437.5,-70.89,0,0,0,0,0
1565285914453.13,-71.49,0,0,0,0,0
1565285914468.75,-71.89,0,0,0,0,0
1565285914484.38,-71.89,0,0,0,0,0
1565285914500,-71.49,0,0,0,0,0
1565285914515.63,-70.82,0,0,0,0,0
1565285914531.25,-70.03,0,0,0,0,0
1565285914546.88,-69.18,0,0,0,0,0
1565285914562.5,-68.33,0,0,0,0,0
1565285914578.13,-67.7,0,0,0,0,0
1565285914593.75,-67.79,0,0,0,0,0
1565285914609.38,-69.37,0,0,0,0,0
1565285914625,-73.22,0,0,0,0,0
1565285914640.63,-79.81,0,0,0,0,0
1565285914656.25,-89.19,0,0,0,0,0
1565285914671.88,-100.95,0,0,0,0,0
1565285914687.5,-114.48,0,0,0,0,0
1565285914703.13,-128.94,0,0,0,0,0
1565285914718.75,-143.33,0,0,0,0,0
1565285914734.38,-156.15,0,0,0,0,0
1565285914750,-165.26,0,0,0,0,0
1565285914765.63,-168.04,0,0,0,0,0
1565285914781.25,-161.96,0,0,0,0,0
1565285914796.88,-145.58,0,0,0,0,0
1565285914812.5,-119.26,0,0,0,0,0
1565285914828.13,-85.57,0,0,0,0,0
1565285914843.75,-48.61,0,0,0,0,0
1565285914859.38,-12.95,0,0,0,0,0
1565285914875,17.91,0,0,0,0,0
1565285914890.63,42.4,0,0,0,0,0
1565285914906.25,60.96,0,0,0,0,0
1565285914921.88,75.26,0,0,0,0,0
1565285914937.5,87.09,0,0,0,0,0
1565285914953.13,97.59,0,0,0,0,0
1565285914968.75,107,0,0,0,0,0
1565285914984.38,115.08,0,0,0,0,0
1565285915000,121.5,0,0,0,0,0
1565285915015.63,126.14,0,0,0,0,0
1565285915031.25,129.07,0,0,0,0,0
1565285915046.88,130.26,0,0,0,0,0
1565285915062.5,129.56,0,0,0,0,0
1565285915078.13,126.82,0,0,0,0,0
1565285915093.75,122.27,0,0,0,0,0
1565285915109.38,116.66,0,0,0,0,0
1565285915125,111.31,0,0,0,0,0
1565285915140.63,107.57,0,0,0,0,0
1565285915156.25,106.3,0,0,0,0,0
1565285915171.88,107.45,0,0,0,0,0
1565285915187.5,109.88,0,0,0,0,0
1565285915203.13,111.68,0,0,0,0,0
1565285915218.75,110.6,0,0,0,0,0
1565285915234.38,104.97,0,0,0,0,0
1565285915250,94.16,0,0,0,0,0
1565285915265.63,78.96,0,0,0,0,0
1565285915281.25,60.98,0,0,0,0,0
1565285915296.88,42.09,0,0,0,0,0
1565285915312.5,23.6,0,0,0,0,0
1565285915328.13,6.29,0,0,0,0,0
1565285915343.75,-9.34,0,0,0,0,0
1565285915359.38,-22.67,0,0,0,0,0
1565285915375,-32.86,0,0,0,0,0
1565285915390.63,-39.25,0,0,0,0,0
1565285915406.25,-41.88,0,0,0,0,0
1565285915421.88,-41.73,0,0,0,0,0
1565285915437.5,-40.36,0,0,0,0,0
1565285915453.13,-39.22,0,0,0,0,0
1565285915468.75,-38.83,0,0,0,0,0
1565285915484.38,-38.72,0,0,0,0,0
1565285915500,-37.82,0,0,0,0,0
1565285915515.63,-35.31,0,0,0,0,0
1565285915531.25,-31.06,0,0,0,0,0
1565285915546.88,-25.62,0,0,0,0,0
1565285915562.5,-19.7,0,0,0,0,0
1565285915578.13,-13.66,0,0,0,0,0
1565285915593.75,-7.45,0,0,0,0,0
1565285915609.38,-0.85,0,0,0,0,0
1565285915625,6.17,0,0,0,0,0
1565285915640.63,13.32,0,0,0,0,0
1565285915656.25,20.06,0,0,0,0,0
1565285915671.88,25.93,0,0,0,0,0
1565285915687.5,30.83,0,0,0,0,0
1565285915703.13,35.11,0,0,0,0,0
1565285915718.75,39.35,0,0,0,0,0
1565285915734.38,44.06,0,0,0,0,0
1565285915750,49.29,0,0,0,0,0
1565285915765.63,54.47,0,0,0,0,0
1565285915781.25,58.52,0,0,0,0,0
1565285915796.88,60.22,0,0,0,0,0
1565285915812.5,58.68,0,0,0,0,0
1565285915828.13,53.7,0,0,0,0,0
1565285915843.75,45.92,0,0,0,0,0
1565285915859.38,36.59,0,0,0,0,0
1565285915875,27.07,0,0,0,0,0
1565285915890.63,18.32,0,0,0,0,0
1565285915906.25,10.58,0,0,0,0,0
1565285915921.88,3.37,0,0,0,0,0
1565285915937.5,-4.21,0,0,0,0,0
1565285915953.13,-13.19,0,0,0,0,0
1565285915968.75,-24.34,0,0,0,0,0
1565285915984.38,-38.13,0,0,0,0,0
1565285916000,-54.61,0,0,0,0,0
1565285916015.63,-73.27,0,0,0,0,0
1565285916031.25,-92.84,0,0,0,0,0
1565285916046.88,-111.12,0,0,0,0,0
1565285916062.5,-125.22,0,0,0,0,0
1565285916078.13,-132.09,0,0,0,0,0
1565285916093.75,-129.47,0,0,0,0,0
1565285916109.38,-116.55,0,0,0,0,0
1565285916125,-94.48,0,0,0,0,0
1565285916140.63,-65.93,0,0,0,0,0
1565285916156.25,-34.47,0,0,0,0,0
1565285916171.88,-3.55,0,0,0,0,0
1565285916187.5,24.19,0,0,0,0,0
1565285916203.13,47.28,0,0,0,0,0
1565285916218.75,65.37,0,0,0,0,0
1565285916234.38,78.93,0,0,0,0,0
1565285916250,88.83,0,0,0,0,0
1565285916265.63,96.03,0,0,0,0,0
1565285916281.25,101.35,0,0,0,0,0
1565285916296.88,105.39,0,0,0,0,0
1565285916312.5,108.44,0,0,0,0,0
1565285916328.13,110.6,0,0,0,0,0
1565285916343.75,111.75,0,0,0,0,0
1565285916359.38,111.73,0,0,0,0,0
1565285916375,110.37,0,0,0,0,0
1565285916390.63,107.76,0,0,0,0,0
1565285916406.25,104.31,0,0,0,0,0
1565285916421.88,100.67,0,0,0,0,0
1565285916437.5,97.51,0,0,0,0,0
1565285916453.13,95.19,0,0,0,0,0
1565285916468.75,93.41,0,0,0,0,0
1565285916484.38,91.18,0,0,0,0,0
1565285916500,87.19,0,0,0,0,0
1565285916515.63,80.28,0,0,0,0,0
1565285916531.25,70.01,0,0,0,0,0
1565285916546.88,56.97,0,0,0,0,0
1565285916562.5,42.53,0,0,0,0,0
1565285916578.13,28.39,0,0,0,0,0
1565285916593.75,16.03,0,0,0,0,0
1565285916609.38,6.33,0,0,0,0,0
1565285916625,-0.53,0,0,0,0,0
1565285916640.63,-4.77,0,0,0,0,0
1565285916656.25,-6.68,0,0,0,0,0
1565285916671.88,-6.48,0,0,0,0,0
1565285916687.5,-4.27,0,0,0,0,0
1565285916703.13,-0.3,0,0,0,0,0
1565285916718.75,4.87,0,0,0,0,0
1565285916734.38,10.44,0,0,0,0,0
1565285916750,15.56,0,0,0,0,0
1565285916765.63,19.51,0,0,0,0,0
1565285916781.25,21.94,0,0,0,0,0
1565285916796.88,22.79,0,0,0,0,0
1565285916812.5,22.13,0,0,0,0,0
1565285916828.13,20.05,0,0,0,0,0
1565285916843.75,16.56,0,0,0,0,0
1565285916859.38,11.81,0,0,0,0,0
1565285916875,6.07,0,0,0,0,0
1565285916890.63,-0.17,0,0,0,0,0
1565285916906.25,-6.43,0,0,0,0,0
1565285916921.88,-12.38,0,0,0,0,0
1565285916937.5,-18.02,0,0,0,0,0
1565285916953.13,-23.75,0,0,0,0,0
1565285916968.75,-30.23,0,0,0,0,0
1565285916984.38,-38.26,0,0,0,0,0
1565285917000,-48.61,0,0,0,0,0
1565285917015.63,-61.81,0,0,0,0,0
1565285917031.25,-77.91,0,0,0,0,0
1565285917046.88,-96.45,0,0,0,0,0
1565285917062.5,-116.25,0,0,0,0,0
1565285917078.13,-135.57,0,0,0,0,0
1565285917093.75,-152.33,0,0,0,0,0
1565285917109.38,-164.56,0,0,0,0,0
1565285917125,-170.83,0,0,0,0,0
1565285917140.63,-170.48,0,0,0,0,0
1565285917156.25,-163.7,0,0,0,0,0
1565285917171.88,-151.3,0,0,0,0,0
1565285917187.5,-134.42,0,0,0,0,0
1565285917203.13,-114.29,0,0,0,0,0
1565285917218.75,-92.1,0,0,0,0,0
1565285917234.38,-69.17,0,0,0,0,0
1565285917250,-46.93,0,0,0,0,0
1565285917265.63,-26.94,0,0,0,0,0
1565285917281.25,-10.68,0,0,0,0,0
1565285917296.88,0.83,0,0,0,0,0
1565285917312.5,7.35,0,0,0,0,0
1565285917328.13,9.44,0,0,0,0,0
1565285917343.75,8.25,0,0,0,0,0
1565285917359.38,4.99,0,0,0,0,0
1565285917375,0.47,0,0,0,0,0
1565285917390.63,-5.08,0,0,0,0,0
1565285917406.25,-11.85,0,0,0,0,0
1565285917421.88,-20,0,0,0,0,0
1565285917437.5,-29.11,0,0,0,0,0
1565285917453.13,-38.09,0,0,0,0,0
1565285917468.75,-45.41,0,0,0,0,0
1565285917484.38,-49.77,0,0,0,0,0
1565285917500,-50.72,0,0,0,0,0
1565285917515.63,-48.95,0,0,0,0,0
1565285917531.25,-45.95,0,0,0,0,0
1565285917546.88,-43.43,0,0,0,0,0
1565285917562.5,-42.49,0,0,0,0,0
1565285917578.13,-43.24,0,0,0,0,0
1565285917593.75,-44.84,0,0,0,0,0
1565285917609.38,-45.88,0,0,0,0,0
1565285917625,-44.96,0,0,0,0,0
1565285917640.63,-41.05,0,0,0,0,0
1565285917656.25,-33.73,0,0,0,0,0
1565285917671.88,-23.34,0,0,0,0,0
1565285917687.5,-11.03,0,0,0,0,0
1565285917703.13,1.45,0,0,0,0,0
1565285917718.75,12.01,0,0,0,0,0
1565285917734.38,18.88,0,0,0,0,0
1565285917750,21.05,0,0,0,0,0
1565285917765.63,18.62,0,0,0,0,0
1565285917781.25,12.58,0,0,0,0,0
1565285917796.88,4.46,0,0,0,0,0
1565285917812.5,-4.19,0,0,0,0,0
1565285917828.13,-11.98,0,0,0,0,0
1565285917843.75,-17.68,0,0,0,0,0
1565285917859.38,-20.11,0,0,0,0,0
1565285917875,-18.16,0,0,0,0,0
1565285917890.63,-11.11,0,0,0,0,0
1565285917906.25,1,0,0,0,0,0
1565285917921.88,17.01,0,0,0,0,0
1565285917937.5,34.8,0,0,0,0,0
1565285917953.13,51.89,0,0,0,0,0
1565285917968.75,66.21,0,0,0,0,0
1565285917984.38,76.61,0,0,0,0,0
1565285918000,83.14,0,0,0,0,0
1565285918015.63,86.62,0,0,0,0,0
1565285918031.25,88.12,0,0,0,0,0
1565285918046.88,88.34,0,0,0,0,0
1565285918062.5,87.28,0,0,0,0,0
1565285918078.13,84.41,0,0,0,0,0
1565285918093.75,79.13,0,0,0,0,0
1565285918109.38,71.31,0,0,0,0,0
1565285918125,61.57,0,0,0,0,0
1565285918140.63,51.2,0,0,0,0,0
1565285918156.25,41.65,0,0,0,0,0
1565285918171.88,34.05,0,0,0,0,0
1565285918187.5,28.77,0,0,0,0,0
1565285918203.13,25.45,0,0,0,0,0
1565285918218.75,23.29,0,0,0,0,0
1565285918234.38,21.67,0,0,0,0,0
1565285918250,20.34,0,0,0,0,0
1565285918265.63,19.6,0,0,0,0,0
1565285918281.25,19.96,0,0,0,0,0
1565285918296.88,21.84,0,0,0,0,0
1565285918312.5,25.21,0,0,0,0,0
1565285918328.13,29.7,0,0,0,0,0
1565285918343.75,34.7,0,0,0,0,0
1565285918359.38,39.67,0,0,0,0,0
1565285918375,44.24,0,0,0,0,0
1565285918390.63,48.12,0,0,0,0,0
1565285918406.25,51.03,0,0,0,0,0
1565285918421.88,52.54,0,0,0,0,0
1565285918437.5,52.21,0,0,0,0,0
1565285918453.13,49.73,0,0,0,0,0
1565285918468.75,45.13,0,0,0,0,0
1565285918484.38,38.65,0,0,0,0,0
1565285918500,30.58,0,0,0,0,0
1565285918515.63,20.96,0,0,0,0,0
1565285918531.25,9.47,0,0,0,0,0
1565285918546.88,-4.37,0,0,0,0,0
1565285918562.5,-20.9,0,0,0,0,0
1565285918578.13,-39.85,0,0,0,0,0
1565285918593.75,-60.13,0,0,0,0,0
1565285918609.38,-79.99,0,0,0,0,0
1565285918625,-97.43,0,0,0,0,0
1565285918640.63,-110.9,0,0,0,0,0
1565285918656.25,-119.8,0,0,0,0,0
1565285918671.88,-124.61,0,0,0,0,0
1565285918687.5,-126.64,0,0,0,0,0
1565285918703.13,-127.26,0,0,0,0,0
1565285918718.75,-127.22,0,0,0,0,0
1565285918734.38,-126.31,0,0,0,0,0
1565285918750,-123.56,0,0,0,0,0
1565285918765.63,-117.96,0,0,0,0,0
1565285918781.25,-109.19,0,0,0,0,0
1565285918796.88,-98.12,0,0,0,0,0
1565285918812.5,-86.53,0,0,0,0,0
1565285918828.13,-76.47,0,0,0,0,0
1565285918843.75,-69.55,0,0,0,0,0
1565285918859.38,-66.4,0,0,0,0,0
1565285918875,-66.76,0,0,0,0,0
1565285918890.63,-69.71,0,0,0,0,0
1565285918906.25,-74.04,0,0,0,0,0
1565285918921.88,-78.39,0,0,0,0,0
1565285918937.5,-81.33,0,0,0,0,0
1565285918953.13,-81.52,0,0,0,0,0
1565285918968.75,-77.85,0,0,0,0,0
1565285918984.38,-69.83,0,0,0,0,0
1565285919000,-57.79,0,0,0,0,0
1565285919015.63,-42.84,0,0,0,0,0
1565285919031.25,-26.52,0,0,0,0,0
1565285919046.88,-10.44,0,0,0,0,0
1565285919062.5,4.01,0,0,0,0,0
1565285919078.13,15.88,0,0,0,0,0
1565285919093.75,24.65,0,0,0,0,0
1565285919109.38,30.31,0,0,0,0,0
1565285919125,33.39,0,0,0,0,0
1565285919140.63,35.11,0,0,0,0,0
1565285919156.25,37.11,0,0,0,0,0
1565285919171.88,41.21,0,0,0,0,0
1565285919187.5,48.81,0,0,0,0,0
1565285919203.13,60.48,0,0,0,0,0
1565285919218.75,75.58,0,0,0,0,0
1565285919234.38,92.44,0,0,0,0,0
1565285919250,108.75,0,0,0,0,0
1565285919265.63,122.28,0,0,0,0,0
1565285919281.25,131.69,0,0,0,0,0
1565285919296.88,136.89,0,0,0,0,0
1565285919312.5,139.03,0,0,0,0,0
1565285919328.13,139.93,0,0,0,0,0
1565285919343.75,141.23,0,0,0,0,0
1565285919359.38,143.63,0,0,0,0,0
1565285919375,146.61,0,0,0,0,0
1565285919390.63,148.63,0,0,0,0,0
1565285919406.25,147.77,0,0,0,0,0
1565285919421.88,142.44,0,0,0,0,0
1565285919437.5,131.78,0,0,0,0,0
1565285919453.13,115.88,0,0,0,0,0
1565285919468.75,95.75,0,0,0,0,0
1565285919484.38,73.15,0,0,0,0,0
1565285919500,50.32,0,0,0,0,0
1565285919515.63,29.57,0,0,0,0,0
1565285919531.25,12.66,0,0,0,0,0
1565285919546.88,0.27,0,0,0,0,0
1565285919562.5,-8.28,0,0,0,0,0
1565285919578.13,-14.77,0,0,0,0,0
1565285919593.75,-21.24,0,0,0,0,0
1565285919609.38,-29.06,0,0,0,0,0
1565285919625,-38.29,0,0,0,0,0
1565285919640.63,-47.7,0,0,0,0,0
1565285919656.25,-55.43,0,0,0,0,0
1565285919671.88,-59.95,0,0,0,0,0
1565285919687.5,-60.7,0,0,0,0,0
1565285919703.13,-58.23,0,0,0,0,0
1565285919718.75,-53.87,0,0,0,0,0
1565285919734.38,-49.06,0,0,0,0,0
1565285919750,-44.84,0,0,0,0,0
1565285919765.63,-41.58,0,0,0,0,0
1565285919781.25,-39.02,0,0,0,0,0
1565285919796.88,-36.44,0,0,0,0,0
1565285919812.5,-32.95,0,0,0,0,0
1565285919828.13,-27.74,0,0,0,0,0
1565285919843.75,-20.35,0,0,0,0,0
1565285919859.38,-10.79,0,0,0,0,0
1565285919875,0.39,0,0,0,0,0
1565285919890.63,12.26,0,0,0,0,0
1565285919906.25,23.6,0,0,0,0,0
1565285919921.88,33.2,0,0,0,0,0
1565285919937.5,40.18,0,0,0,0,0
1565285919953.13,44.04,0,0,0,0,0
1565285919968.75,44.87,0,0,0,0,0
1565285919984.38,43.25,0,0,0,0,0
1565285920000,40.18,0,0,0,0,0
1565285920015.63,36.89,0,0,0,0,0
1565285920031.25,34.59,0,0,0,0,0
1565285920046.88,34.26,0,0,0,0,0
1565285920062.5,36.43,0,0,0,0,0
1565285920078.13,41.14,0,0,0,0,0
1565285920093.75,47.98,0,0,0,0,0
1565285920109.38,56.11,0,0,0,0,0
1565285920125,64.56,0,0,0,0,0
1565285920140.63,72.42,0,0,0,0,0
1565285920156.25,78.95,0,0,0,0,0
1565285920171.88,83.71,0,0,0,0,0
1565285920187.5,86.43,0,0,0,0,0
1565285920203.13,86.95,0,0,0,0,0
1565285920218.75,85.19,0,0,0,0,0
1565285920234.38,81.21,0,0,0,0,0
1565285920250,75.4,0,0,0,0,0
1565285920265.63,68.46,0,0,0,0,0
1565285920281.25,61.36,0,0,0,0,0
1565285920296.88,55.08,0,0,0,0,0
1565285920312.5,50.29,0,0,0,0,0
1565285920328.13,47.18,0,0,0,0,0
1565285920343.75,45.44,0,0,0,0,0
1565285920359.38,44.55,0,0,0,0,0
1565285920375,44.04,0,0,0,0,0
1565285920390.63,43.76,0,0,0,0,0
1565285920406.25,43.91,0,0,0,0,0
1565285920421.88,44.81,0,0,0,0,0
1565285920437.5,46.73,0,0,0,0,0
1565285920453.13,49.68,0,0,0,0,0
1565285920468.75,53.4,0,0,0,0,0
1565285920484.38,57.5,0,0,0,0,0
1565285920500,61.51,0,0,0,0,0
1565285920515.63,64.99,0,0,0,0,0
1565285920531.25,67.53,0,0,0,0,0
1565285920546.88,68.81,0,0,0,0,0
1565285920562.5,68.6,0,0,0,0,0
1565285920578.13,66.9,0,0,0,0,0
1565285920593.75,63.98,0,0,0,0,0
1565285920609.38,60.23,0,0,0,0,0
1565285920625,56.01,0,0,0,0,0
1565285920640.63,51.4,0,0,0,0,0
1565285920656.25,46.12,0,0,0,0,0
1565285920671.88,39.64,0,0,0,0,0
1565285920687.5,31.43,0,0,0,0,0
1565285920703.13,21.32,0,0,0,0,0
1565285920718.75,9.71,0,0,0,0,0
1565285920734.38,-2.51,0,0,0,0,0
1565285920750,-14.21,0,0,0,0,0
1565285920765.63,-24.37,0,0,0,0,0
1565285920781.25,-32.45,0,0,0,0,0
1565285920796.88,-38.32,0,0,0,0,0
1565285920812.5,-42.26,0,0,0,0,0
1565285920828.13,-44.68,0,0,0,0,0
1565285920843.75,-45.93,0,0,0,0,0
1565285920859.38,-46.28,0,0,0,0,0
1565285920875,-45.93,0,0,0,0,0
1565285920890.63,-45.08,0,0,0,0,0
1565285920906.25,-43.95,0,0,0,0,0
1565285920921.88,-42.8,0,0,0,0,0
1565285920937.5,-41.75,0,0,0,0,0
1565285920953.13,-40.79,0,0,0,0,0
1565285920968.75,-39.78,0,0,0,0,0
1565285920984.38,-38.52,0,0,0,0,0
1565285921000,-36.93,0,0,0,0,0
1565285921015.63,-35.08,0,0,0,0,0
1565285921031.25,-33.15,0,0,0,0,0
1565285921046.88,-31.37,0,0,0,0,0
1565285921062.5,-29.95,0,0,0,0,0
1565285921078.13,-28.92,0,0,0,0,0
1565285921093.75,-28.21,0,0,0,0,0
1565285921109.38,-27.69,0,0,0,0,0
1565285921125,-27.26,0,0,0,0,0
1565285921140.63,-26.94,0,0,0,0,0
1565285921156.25,-26.84,0,0,0,0,0
1565285921171.88,-27.18,0,0,0,0,0
1565285921187.5,-28.19,0,0,0,0,0
1565285921203.13,-30.22,0,0,0,0,0
1565285921218.75,-33.57,0,0,0,0,0
1565285921234.38,-38.52,0,0,0,0,0
1565285921250,-45.13,0,0,0,0,0
1565285921265.63,-53.21,0,0,0,0,0
1565285921281.25,-62.28,0,0,0,0,0
1565285921296.88,-71.58,0,0,0,0,0
1565285921312.5,-80.37,0,0,0,0,0
1565285921328.13,-88.09,0,0,0,0,0
1565285921343.75,-94.51,0,0,0,0,0
1565285921359.38,-99.68,0,0,0,0,0
1565285921375,-103.78,0,0,0,0,0
1565285921390.63,-106.88,0,0,0,0,0
1565285921406.25,-108.83,0,0,0,0,0
1565285921421.88,-109.39,0,0,0,0,0
1565285921437.5,-108.4,0,0,0,0,0
1565285921453.13,-106.02,0,0,0,0,0
1565285921468.75,-102.72,0,0,0,0,0
1565285921484.38,-99.19,0,0,0,0,0
1565285921500,-96.02,0,0,0,0,0
1565285921515.63,-93.57,0,0,0,0,0
1565285921531.25,-91.79,0,0,0,0,0
1565285921546.88,-90.38,0,0,0,0,0
1565285921562.5,-88.96,0,0,0,0,0
1565285921578.13,-87.2,0,0,0,0,0
1565285921593.75,-84.85,0,0,0,0,0
1565285921609.38,-81.61,0,0,0,0,0
1565285921625,-77.14,0,0,0,0,0
1565285921640.63,-71.03,0,0,0,0,0
1565285921656.25,-63.06,0,0,0,0,0
1565285921671.88,-53.32,0,0,0,0,0
1565285921687.5,-42.34,0,0,0,0,0
1565285921703.13,-30.96,0,0,0,0,0
1565285921718.75,-20.04,0,0,0,0,0
1565285921734.38,-10.19,0,0,0,0,0
1565285921750,-1.56,0,0,0,0,0
1565285921765.63,6.02,0,0,0,0,0
1565285921781.25,12.84,0,0,0,0,0
1565285921796.88,19.01,0,0,0,0,0
1565285921812.5,24.27,0,0,0,0,0
1565285921828.13,28.04,0,0,0,0,0
1565285921843.75,29.65,0,0,0,0,0
1565285921859.38,28.64,0,0,0,0,0
1565285921875,24.94,0,0,0,0,0
1565285921890.63,19.06,0,0,0,0,0
1565285921906.25,12.04,0,0,0,0,0
1565285921921.88,5.3,0,0,0,0,0
1565285921937.5,0.47,0,0,0,0,0
1565285921953.13,-0.95,0,0,0,0,0
1565285921968.75,1.95,0,0,0,0,0
1565285921984.38,9.34,0,0,0,0,0
1565285922000,20.39,0,0,0,0,0
1565285922015.63,33.5,0,0,0,0,0
1565285922031.25,46.74,0,0,0,0,0
1565285922046.88,58.42,0,0,0,0,0
1565285922062.5,67.43,0,0,0,0,0
1565285922078.13,73.47,0,0,0,0,0
1565285922093.75,76.76,0,0,0,0,0
1565285922109.38,77.74,0,0,0,0,0
1565285922125,76.73,0,0,0,0,0
1565285922140.63,73.79,0,0,0,0,0
1565285922156.25,68.77,0,0,0,0,0
1565285922171.88,61.43,0,0,0,0,0
1565285922187.5,51.69,0,0,0,0,0
1565285922203.13,39.7,0,0,0,0,0
1565285922218.75,25.85,0,0,0,0,0
1565285922234.38,10.63,0,0,0,0,0
1565285922250,-5.49,0,0,0,0,0
1565285922265.63,-22.14,0,0,0,0,0
1565285922281.25,-39.19,0,0,0,0,0
1565285922296.88,-56.58,0,0,0,0,0
1565285922312.5,-74.19,0,0,0,0,0
1565285922328.13,-91.63,0,0,0,0,0
1565285922343.75,-108.18,0,0,0,0,0
1565285922359.38,-122.97,0,0,0,0,0
1565285922375,-135.19,0,0,0,0,0
1565285922390.63,-144.33,0,0,0,0,0
1565285922406.25,-150.28,0,0,0,0,0
1565285922421.88,-153.12,0,0,0,0,0
1565285922437.5,-152.84,0,0,0,0,0
1565285922453.13,-149.11,0,0,0,0,0
1565285922468.75,-141.56,0,0,0,0,0
1565285922484.38,-130.14,0,0,0,0,0
1565285922500,-115.55,0,0,0,0,0
1565285922515.63,-99.4,0,0,0,0,0
1565285922531.25,-83.81,0,0,0,0,0
1565285922546.88,-70.68,0,0,0,0,0
1565285922562.5,-60.91,0,0,0,0,0
1565285922578.13,-54.04,0,0,0,0,0
1565285922593.75,-48.5,0,0,0,0,0
1565285922609.38,-42.31,0,0,0,0,0
1565285922625,-33.89,0,0,0,0,0
1565285922640.63,-22.57,0,0,0,0,0
1565285922656.25,-8.73,0,0,0,0,0
1565285922671.88,6.48,0,0,0,0,0
1565285922687.5,21.6,0,0,0,0,0
1565285922703.13,35.33,0,0,0,0,0
1565285922718.75,46.72,0,0,0,0,0
1565285922734.38,55.38,0,0,0,0,0
1565285922750,61.48,0,0,0,0,0
1565285922765.63,65.66,0,0,0,0,0
1565285922781.25,68.87,0,0,0,0,0
1565285922796.88,72.12,0,0,0,0,0
1565285922812.5,76.19,0,0,0,0,0
1565285922828.13,81.42,0,0,0,0,0
1565285922843.75,87.65,0,0,0,0,0
1565285922859.38,94.31,0,0,0,0,0
1565285922875,100.72,0,0,0,0,0
1565285922890.63,106.27,0,0,0,0,0
1565285922906.25,110.67,0,0,0,0,0
1565285922921.88,113.95,0,0,0,0,0
1565285922937.5,116.32,0,0,0,0,0
1565285922953.13,118.05,0,0,0,0,0
1565285922968.75,119.37,0,0,0,0,0
1565285922984.38,120.42,0,0,0,0,0
1565285923000,121.22,0,0,0,0,0
1565285923015.63,121.76,0,0,0,0,0
1565285923031.25,121.99,0,0,0,0,0
1565285923046.88,121.93,0,0,0,0,0
1565285923062.5,121.66,0,0,0,0,0
1565285923078.13,121.35,0,0,0,0,0
1565285923093.75,121.2,0,0,0,0,0
1565285923109.38,121.5,0,0,0,0,0
1565285923125,122.45,0,0,0,0,0
1565285923140.63,124.23,0,0,0,0,0
1565285923156.25,126.91,0,0,0,0,0
1565285923171.88,130.44,0,0,0,0,0
1565285923187.5,134.6,0,0,0,0,0
1565285923203.13,139.02,0,0,0,0,0
1565285923218.75,143.2,0,0,0,0,0
1565285923234.38,146.57,0,0,0,0,0
1565285923250,148.65,0,0,0,0,0
1565285923265.63,149.17,0,0,0,0,0
1565285923281.25,148.14,0,0,0,0,0
1565285923296.88,145.78,0,0,0,0,0
1565285923312.5,142.39,0,0,0,0,0
1565285923328.13,138.16,0,0,0,0,0
1565285923343.75,133.02,0,0,0,0,0
1565285923359.38,126.68,0,0,0,0,0
1565285923375,118.73,0,0,0,0,0
1565285923390.63,108.91,0,0,0,0,0
1565285923406.25,97.21,0,0,0,0,0
1565285923421.88,83.98,0,0,0,0,0
1565285923437.5,69.78,0,0,0,0,0
1565285923453.13,55.23,0,0,0,0,0
1565285923468.75,40.88,0,0,0,0,0
1565285923484.38,27.17,0,0,0,0,0
1565285923500,14.37,0,0,0,0,0
1565285923515.63,2.67,0,0,0,0,0
1565285923531.25,-7.79,0,0,0,0,0
1565285923546.88,-16.98,0,0,0,0,0
1565285923562.5,-24.99,0,0,0,0,0
1565285923578.13,-32.06,0,0,0,0,0
1565285923593.75,-38.63,0,0,0,0,0
1565285923609.38,-45.28,0,0,0,0,0
1565285923625,-52.59,0,0,0,0,0
1565285923640.63,-60.92,0,0,0,0,0
1565285923656.25,-70.3,0,0,0,0,0
1565285923671.88,-80.26,0,0,0,0,0
1565285923687.5,-90.03,0,0,0,0,0
1565285923703.13,-98.7,0,0,0,0,0
1565285923718.75,-105.65,0,0,0,0,0
1565285923734.38,-110.78,0,0,0,0,0
1565285923750,-114.47,0,0,0,0,0
1565285923765.63,-117.36,0,0,0,0,0
1565285923781.25,-119.92,0,0,0,0,0
1565285923796.88,-122.25,0,0,0,0,0
1565285923812.5,-124.12,0,0,0,0,0
1565285923828.13,-125.14,0,0,0,0,0
1565285923843.75,-125.1,0,0,0,0,0
1565285923859.38,-123.98,0,0,0,0,0
1565285923875,-121.82,0,0,0,0,0
1565285923890.63,-118.62,0,0,0,0,0
1565285923906.25,-114.24,0,0,0,0,0
1565285923921.88,-108.49,0,0,0,0,0
1565285923937.5,-101.38,0,0,0,0,0
1565285923953.13,-93.2,0,0,0,0,0
1565285923968.75,-84.47,0,0,0,0,0
1565285923984.38,-75.77,0,0,0,0,0
1565285924000,-67.55,0,0,0,0,0
1565285924015.63,-60.12,0,0,0,0,0
1565285924031.25,-53.61,0,0,0,0,0
1565285924046.88,-48.11,0,0,0,0,0
1565285924062.5,-43.67,0,0,0,0,0
1565285924078.13,-40.26,0,0,0,0,0
1565285924093.75,-37.72,0,0,0,0,0
1565285924109.38,-35.82,0,0,0,0,0
1565285924125,-34.28,0,0,0,0,0
1565285924140.63,-32.99,0,0,0,0,0
1565285924156.25,-31.92,0,0,0,0,0
1565285924171.88,-31.16,0,0,0,0,0
1565285924187.5,-30.77,0,0,0,0,0
1565285924203.13,-30.74,0,0,0,0,0
1565285924218.75,-30.96,0,0,0,0,0
1565285924234.38,-31.33,0,0,0,0,0
1565285924250,-31.84,0,0,0,0,0
1565285924265.63,-32.65,0,0,0,0,0
1565285924281.25,-34.02,0,0,0,0,0
1565285924296.88,-36.19,0,0,0,0,0
1565285924312.5,-39.35,0,0,0,0,0
1565285924328.13,-43.46,0,0,0,0,0
1565285924343.75,-48.38,0,0,0,0,0
1565285924359.38,-53.93,0,0,0,0,0
1565285924375,-59.92,0,0,0,0,0
1565285924390.63,-66.17,0,0,0,0,0
1565285924406.25,-72.35,0,0,0,0,0
1565285924421.88,-77.83,0,0,0,0,0
1565285924437.5,-81.73,0,0,0,0,0
1565285924453.13,-83.15,0,0,0,0,0
1565285924468.75,-81.56,0,0,0,0,0
1565285924484.38,-77.06,0,0,0,0,0
1565285924500,-70.46,0,0,0,0,0
1565285924515.63,-62.95,0,0,0,0,0
1565285924531.25,-55.61,0,0,0,0,0
1565285924546.88,-49.04,0,0,0,0,0
1565285924562.5,-43.24,0,0,0,0,0
1565285924578.13,-37.94,0,0,0,0,0
1565285924593.75,-32.86,0,0,0,0,0
1565285924609.38,-28.02,0,0,0,0,0
1565285924625,-23.67,0,0,0,0,0
1565285924640.63,-20.02,0,0,0,0,0
1565285924656.25,-17.06,0,0,0,0,0
1565285924671.88,-14.47,0,0,0,0,0
1565285924687.5,-11.74,0,0,0,0,0
1565285924703.13,-8.46,0,0,0,0,0
1565285924718.75,-4.42,0,0,0,0,0
1565285924734.38,0.38,0,0,0,0,0
1565285924750,5.85,0,0,0,0,0
1565285924765.63,11.93,0,0,0,0,0
1565285924781.25,18.65,0,0,0,0,0
1565285924796.88,26.02,0,0,0,0,0
1565285924812.5,33.95,0,0,0,0,0
1565285924828.13,42.1,0,0,0,0,0
1565285924843.75,49.93,0,0,0,0,0
1565285924859.38,56.82,0,0,0,0,0
1565285924875,62.23,0,0,0,0,0
1565285924890.63,65.89,0,0,0,0,0
1565285924906.25,67.88,0,0,0,0,0
1565285924921.88,68.55,0,0,0,0,0
1565285924937.5,68.43,0,0,0,0,0
1565285924953.13,68.03,0,0,0,0,0
1565285924968.75,67.67,0,0,0,0,0
1565285924984.38,67.52,0,0,0,0,0
1565285925000,67.62,0,0,0,0,0
1565285925015.63,67.9,0,0,0,0,0
1565285925031.25,68.34,0,0,0,0,0
1565285925046.88,68.84,0,0,0,0,0
1565285925062.5,69.25,0,0,0,0,0
1565285925078.13,69.28,0,0,0,0,0
1565285925093.75,68.6,0,0,0,0,0
1565285925109.38,67.05,0,0,0,0,0
1565285925125,64.75,0,0,0,0,0
1565285925140.63,62.2,0,0,0,0,0
1565285925156.25,60.05,0,0,0,0,0
1565285925171.88,58.85,0,0,0,0,0
1565285925187.5,58.71,0,0,0,0,0
1565285925203.13,59.2,0,0,0,0,0
1565285925218.75,59.44,0,0,0,0,0
1565285925234.38,58.54,0,0,0,0,0
1565285925250,55.9,0,0,0,0,0
1565285925265.63,51.52,0,0,0,0,0
1565285925281.25,46.01,0,0,0,0,0
1565285925296.88,40.28,0,0,0,0,0
1565285925312.5,35.34,0,0,0,0,0
1565285925328.13,31.96,0,0,0,0,0
1565285925343.75,30.67,0,0,0,0,0
1565285925359.38,31.71,0,0,0,0,0
1565285925375,35.19,0,0,0,0,0
1565285925390.63,41.04,0,0,0,0,0
1565285925406.25,48.99,0,0,0,0,0
1565285925421.88,58.58,0,0,0,0,0
1565285925437.5,69.06,0,0,0,0,0
1565285925453.13,79.56,0,0,0,0,0
1565285925468.75,89.18,0,0,0,0,0
1565285925484.38,97.16,0,0,0,0,0
1565285925500,103.03,0,0,0,0,0
1565285925515.63,106.57,0,0,0,0,0
1565285925531.25,107.86,0,0,0,0,0
1565285925546.88,107.13,0,0,0,0,0
1565285925562.5,104.81,0,0,0,0,0
1565285925578.13,101.45,0,0,0,0,0
1565285925593.75,97.7,0,0,0,0,0
1565285925609.38,94.17,0,0,0,0,0
1565285925625,91.13,0,0,0,0,0
1565285925640.63,88.39,0,0,0,0,0
1565285925656.25,85.16,0,0,0,0,0
1565285925671.88,80.47,0,0,0,0,0
1565285925687.5,73.54,0,0,0,0,0
1565285925703.13,64.39,0,0,0,0,0
1565285925718.75,53.96,0,0,0,0,0
1565285925734.38,43.82,0,0,0,0,0
1565285925750,35.6,0,0,0,0,0
1565285925765.63,30.23,0,0,0,0,0
1565285925781.25,27.68,0,0,0,0,0
1565285925796.88,27.01,0,0,0,0,0
1565285925812.5,26.81,0,0,0,0,0
1565285925828.13,25.72,0,0,0,0,0
1565285925843.75,22.78,0,0,0,0,0
1565285925859.38,17.49,0,0,0,0,0
1565285925875,9.87,0,0,0,0,0
1565285925890.63,0.3,0,0,0,0,0
1565285925906.25,-10.52,0,0,0,0,0
1565285925921.88,-21.66,0,0,0,0,0
1565285925937.5,-32.14,0,0,0,0,0
1565285925953.13,-41.14,0,0,0,0,0
1565285925968.75,-48.29,0,0,0,0,0
1565285925984.38,-53.82,0,0,0,0,0
1565285926000,-58.51,0,0,0,0,0
1565285926015.63,-63.56,0,0,0,0,0
1565285926031.25,-70.07,0,0,0,0,0
1565285926046.88,-78.87,0,0,0,0,0
1565285926062.5,-90.11,0,0,0,0,0
1565285926078.13,-103.29,0,0,0,0,0
1565285926093.75,-117.42,0,0,0,0,0
1565285926109.38,-131.32,0,0,0,0,0
1565285926125,-144.02,0,0,0,0,0
1565285926140.63,-154.99,0,0,0,0,0
1565285926156.25,-164.13,0,0,0,0,0
1565285926171.88,-171.44,0,0,0,0,0
1565285926187.5,-176.75,0,0,0,0,0
1565285926203.13,-179.63,0,0,0,0,0
1565285926218.75,-179.53,0,0,0,0,0
1565285926234.38,-176.11,0,0,0,0,0
1565285926250,-169.45,0,0,0,0,0
1565285926265.63,-159.93,0,0,0,0,0
1565285926281.25,-147.92,0,0,0,0,0
1565285926296.88,-133.54,0,0,0,0,0
1565285926312.5,-116.64,0,0,0,0,0
1565285926328.13,-97.26,0,0,0,0,0
1565285926343.75,-75.91,0,0,0,0,0
1565285926359.38,-53.76,0,0,0,0,0
1565285926375,-32.29,0,0,0,0,0
1565285926390.63,-12.64,0,0,0,0,0
1565285926406.25,4.73,0,0,0,0,0
1565285926421.88,20.11,0,0,0,0,0
1565285926437.5,34.08,0,0,0,0,0
1565285926453.13,47.03,0,0,0,0,0
1565285926468.75,58.8,0,0,0,0,0
1565285926484.38,68.91,0,0,0,0,0
1565285926500,76.82,0,0,0,0,0
1565285926515.63,82.39,0,0,0,0,0
1565285926531.25,85.9,0,0,0,0,0
1565285926546.88,87.87,0,0,0,0,0
1565285926562.5,88.84,0,0,0,0,0
1565285926578.13,89.17,0,0,0,0,0
1565285926593.75,89.05,0,0,0,0,0
1565285926609.38,88.53,0,0,0,0,0
1565285926625,87.67,0,0,0,0,0
1565285926640.63,86.45,0,0,0,0,0
1565285926656.25,84.86,0,0,0,0,0
1565285926671.88,82.91,0,0,0,0,0
1565285926687.5,80.63,0,0,0,0,0
1565285926703.13,78.13,0,0,0,0,0
1565285926718.75,75.51,0,0,0,0,0
1565285926734.38,72.74,0,0,0,0,0
1565285926750,69.71,0,0,0,0,0
1565285926765.63,66.24,0,0,0,0,0
1565285926781.25,62.2,0,0,0,0,0
1565285926796.88,57.61,0,0,0,0,0
1565285926812.5,52.69,0,0,0,0,0
1565285926828.13,47.7,0,0,0,0,0
1565285926843.75,42.86,0,0,0,0,0
1565285926859.38,38.26,0,0,0,0,0
1565285926875,33.84,0,0,0,0,0
1565285926890.63,29.47,0,0,0,0,0
1565285926906.25,25.01,0,0,0,0,0
1565285926921.88,20.39,0,0,0,0,0
1565285926937.5,15.63,0,0,0,0,0
1565285926953.13,10.89,0,0,0,0,0
1565285926968.75,6.4,0,0,0,0,0
1565285926984.38,2.44,0,0,0,0,0
1565285927000,-0.78,0,0,0,0,0
1565285927015.63,-3.26,0,0,0,0,0
1565285927031.25,-5.12,0,0,0,0,0
1565285927046.88,-6.67,0,0,0,0,0
1565285927062.5,-8.2,0,0,0,0,0
1565285927078.13,-9.95,0,0,0,0,0
1565285927093.75,-11.98,0,0,0,0,0
1565285927109.38,-14.32,0,0,0,0,0
1565285927125,-16.87,0,0,0,0,0
1565285927140.63,-19.54,0,0,0,0,0
1565285927156.25,-22.26,0,0,0,0,0
1565285927171.88,-24.94,0,0,0,0,0
1565285927187.5,-27.54,0,0,0,0,0
1565285927203.13,-30.03,0,0,0,0,0
1565285927218.75,-32.39,0,0,0,0,0
1565285927234.38,-34.66,0,0,0,0,0
1565285927250,-36.91,0,0,0,0,0
1565285927265.63,-39.22,0,0,0,0,0
1565285927281.25,-41.77,0,0,0,0,0
1565285927296.88,-44.66,0,0,0,0,0
1565285927312.5,-47.94,0,0,0,0,0
1565285927328.13,-51.52,0,0,0,0,0
1565285927343.75,-55.1,0,0,0,0,0
1565285927359.38,-58.32,0,0,0,0,0
1565285927375,-60.76,0,0,0,0,0
1565285927390.63,-62.08,0,0,0,0,0
1565285927406.25,-61.97,0,0,0,0,0
1565285927421.88,-60.29,0,0,0,0,0
1565285927437.5,-57.03,0,0,0,0,0
1565285927453.13,-52.45,0,0,0,0,0
1565285927468.75,-47.16,0,0,0,0,0
1565285927484.38,-41.9,0,0,0,0,0
1565285927500,-37.4,0,0,0,0,0
1565285927515.63,-34.07,0,0,0,0,0
1565285927531.25,-31.83,0,0,0,0,0
1565285927546.88,-30.13,0,0,0,0,0
1565285927562.5,-28.2,0,0,0,0,0
1565285927578.13,-25.41,0,0,0,0,0
1565285927593.75,-21.52,0,0,0,0,0
1565285927609.38,-16.8,0,0,0,0,0
1565285927625,-11.82,0,0,0,0,0
1565285927640.63,-7.31,0,0,0,0,0
1565285927656.25,-3.79,0,0,0,0,0
1565285927671.88,-1.52,0,0,0,0,0
1565285927687.5,-0.44,0,0,0,0,0
1565285927703.13,-0.28,0,0,0,0,0
1565285927718.75,-0.65,0,0,0,0,0
1565285927734.38,-1.18,0,0,0,0,0
1565285927750,-1.57,0,0,0,0,0
1565285927765.63,-1.59,0,0,0,0,0
1565285927781.25,-1.13,0,0,0,0,0
1565285927796.88,-0.18,0,0,0,0,0
1565285927812.5,1.1,0,0,0,0,0
1565285927828.13,2.46,0,0,0,0,0
1565285927843.75,3.66,0,0,0,0,0
1565285927859.38,4.49,0,0,0,0,0
1565285927875,5,0,0,0,0,0
1565285927890.63,5.32,0,0,0,0,0
1565285927906.25,5.66,0,0,0,0,0
1565285927921.88,6.2,0,0,0,0,0
1565285927937.5,7.02,0,0,0,0,0
1565285927953.13,8.18,0,0,0,0,0
1565285927968.75,9.82,0,0,0,0,0
1565285927984.38,12.16,0,0,0,0,0
1565285928000,15.38,0,0,0,0,0
1565285928015.63,19.61,0,0,0,0,0
1565285928031.25,24.67,0,0,0,0,0
1565285928046.88,30.19,0,0,0,0,0
1565285928062.5,35.66,0,0,0,0,0
1565285928078.13,40.68,0,0,0,0,0
1565285928093.75,45.13,0,0,0,0,0
1565285928109.38,49.23,0,0,0,0,0
1565285928125,53.48,0,0,0,0,0
1565285928140.63,58.38,0,0,0,0,0
1565285928156.25,64.19,0,0,0,0,0
1565285928171.88,70.72,0,0,0,0,0
1565285928187.5,77.32,0,0,0,0,0
1565285928203.13,83.02,0,0,0,0,0
1565285928218.75,86.88,0,0,0,0,0
1565285928234.38,88.23,0,0,0,0,0
1565285928250,86.97,0,0,0,0,0
1565285928265.63,83.44,0,0,0,0,0
1565285928281.25,78.26,0,0,0,0,0
1565285928296.88,72.06,0,0,0,0,0
1565285928312.5,65.23,0,0,0,0,0
1565285928328.13,57.85,0,0,0,0,0
1565285928343.75,49.87,0,0,0,0,0
1565285928359.38,41.36,0,0,0,0,0
1565285928375,32.52,0,0,0,0,0
1565285928390.63,23.86,0,0,0,0,0
1565285928406.25,15.95,0,0,0,0,0
1565285928421.88,9.24,0,0,0,0,0
1565285928437.5,3.91,0,0,0,0,0
1565285928453.13,-0.16,0,0,0,0,0
1565285928468.75,-3.28,0,0,0,0,0
1565285928484.38,-5.76,0,0,0,0,0
1565285928500,-7.89,0,0,0,0,0
1565285928515.63,-10.02,0,0,0,0,0
1565285928531.25,-12.67,0,0,0,0,0
1565285928546.88,-16.5,0,0,0,0,0
1565285928562.5,-22.07,0,0,0,0,0
1565285928578.13,-29.49,0,0,0,0,0
1565285928593.75,-38.17,0,0,0,0,0
1565285928609.38,-46.95,0,0,0,0,0
1565285928625,-54.44,0,0,0,0,0
1565285928640.63,-59.6,0,0,0,0,0
1565285928656.25,-62.03,0,0,0,0,0
1565285928671.88,-61.95,0,0,0,0,0
1565285928687.5,-59.87,0,0,0,0,0
1565285928703.13,-56.21,0,0,0,0,0
1565285928718.75,-51.06,0,0,0,0,0
1565285928734.38,-44.3,0,0,0,0,0
1565285928750,-35.85,0,0,0,0,0
1565285928765.63,-25.96,0,0,0,0,0
1565285928781.25,-15.25,0,0,0,0,0
1565285928796.88,-4.55,0,0,0,0,0
1565285928812.5,5.32,0,0,0,0,0
1565285928828.13,13.73,0,0,0,0,0
1565285928843.75,20.32,0,0,0,0,0
1565285928859.38,24.93,0,0,0,0,0
1565285928875,27.56,0,0,0,0,0
1565285928890.63,28.31,0,0,0,0,0
1565285928906.25,27.36,0,0,0,0,0
1565285928921.88,25.09,0,0,0,0,0
1565285928937.5,21.94,0,0,0,0,0
1565285928953.13,18.45,0,0,0,0,0
1565285928968.75,15.16,0,0,0,0,0
1565285928984.38,12.47,0,0,0,0,0
1565285929000,10.57,0,0,0,0,0
1565285929015.63,9.44,0,0,0,0,0
1565285929031.25,8.9,0,0,0,0,0
1565285929046.88,8.76,0,0,0,0,0
1565285929062.5,8.94,0,0,0,0,0
1565285929078.13,9.51,0,0,0,0,0
1565285929093.75,10.62,0,0,0,0,0
1565285929109.38,12.23,0,0,0,0,0
1565285929125,14.08,0,0,0,0,0
1565285929140.63,15.7,0,0,0,0,0
1565285929156.25,16.49,0,0,0,0,0
1565285929171.88,15.94,0,0,0,0,0
1565285929187.5,13.72,0,0,0,0,0
1565285929203.13,9.66,0,0,0,0,0
1565285929218.75,3.83,0,0,0,0,0
1565285929234.38,-3.45,0,0,0,0,0
1565285929250,-11.46,0,0,0,0,0
1565285929265.63,-19.11,0,0,0,0,0
1565285929281.25,-25.1,0,0,0,0,0
1565285929296.88,-28.31,0,0,0,0,0
1565285929312.5,-28.23,0,0,0,0,0
1565285929328.13,-25.22,0,0,0,0,0
1565285929343.75,-20.44,0,0,0,0,0
1565285929359.38,-15.35,0,0,0,0,0
1565285929375,-11.1,0,0,0,0,0
1565285929390.63,-8.12,0,0,0,0,0
1565285929406.25,-6.08,0,0,0,0,0
1565285929421.88,-4.25,0,0,0,0,0
1565285929437.5,-1.96,0,0,0,0,0
1565285929453.13,0.9,0,0,0,0,0
1565285929468.75,3.87,0,0,0,0,0
1565285929484.38,6.12,0,0,0,0,0
1565285929500,6.86,0,0,0,0,0
1565285929515.63,5.67,0,0,0,0,0
1565285929531.25,2.66,0,0,0,0,0
1565285929546.88,-1.56,0,0,0,0,0
1565285929562.5,-6.23,0,0,0,0,0
1565285929578.13,-10.6,0,0,0,0,0
1565285929593.75,-14.12,0,0,0,0,0
1565285929609.38,-16.45,0,0,0,0,0
1565285929625,-17.44,0,0,0,0,0
1565285929640.63,-17.05,0,0,0,0,0
1565285929656.25,-15.31,0,0,0,0,0
1565285929671.88,-12.43,0,0,0,0,0
1565285929687.5,-8.72,0,0,0,0,0
1565285929703.13,-4.63,0,0,0,0,0
1565285929718.75,-0.56,0,0,0,0,0
1565285929734.38,3.26,0,0,0,0,0
1565285929750,6.87,0,0,0,0,0
1565285929765.63,10.46,0,0,0,0,0
1565285929781.25,14.2,0,0,0,0,0
1565285929796.88,18.09,0,0,0,0,0
1565285929812.5,21.93,0,0,0,0,0
1565285929828.13,25.55,0,0,0,0,0
1565285929843.75,28.98,0,0,0,0,0
1565285929859.38,32.57,0,0,0,0,0
1565285929875,36.92,0,0,0,0,0
1565285929890.63,42.62,0,0,0,0,0
1565285929906.25,49.84,0,0,0,0,0
1565285929921.88,58.18,0,0,0,0,0
1565285929937.5,66.83,0,0,0,0,0
1565285929953.13,74.75,0,0,0,0,0
1565285929968.75,81.01,0,0,0,0,0
1565285929984.38,84.94,0,0,0,0,0
1565285930000,86.12,0,0,0,0,0
1565285930015.63,84.31,0,0,0,0,0
1565285930031.25,79.38,0,0,0,0,0
1565285930046.88,71.37,0,0,0,0,0
1565285930062.5,60.5,0,0,0,0,0
1565285930078.13,47.34,0,0,0,0,0
1565285930093.75,32.66,0,0,0,0,0
1565285930109.38,17.27,0,0,0,0,0
1565285930125,1.74,0,0,0,0,0
1565285930140.63,-13.82,0,0,0,0,0
1565285930156.25,-29.67,0,0,0,0,0
1565285930171.88,-46.27,0,0,0,0,0
1565285930187.5,-63.84,0,0,0,0,0
1565285930203.13,-82.08,0,0,0,0,0
1565285930218.75,-100.04,0,0,0,0,0
1565285930234.38,-116.44,0,0,0,0,0
1565285930250,-130.01,0,0,0,0,0
1565285930265.63,-139.93,0,0,0,0,0
1565285930281.25,-145.91,0,0,0,0,0
1565285930296.88,-148.16,0,0,0,0,0
1565285930312.5,-147,0,0,0,0,0
1565285930328.13,-142.8,0,0,0,0,0
1565285930343.75,-135.84,0,0,0,0,0
1565285930359.38,-126.54,0,0,0,0,0
1565285930375,-115.53,0,0,0,0,0
1565285930390.63,-103.6,0,0,0,0,0
1565285930406.25,-91.62,0,0,0,0,0
1565285930421.88,-80.27,0,0,0,0,0
1565285930437.5,-69.9,0,0,0,0,0
1565285930453.13,-60.51,0,0,0,0,0
1565285930468.75,-51.85,0,0,0,0,0
1565285930484.38,-43.51,0,0,0,0,0
1565285930500,-35.24,0,0,0,0,0
1565285930515.63,-26.96,0,0,0,0,0
1565285930531.25,-18.82,0,0,0,0,0
1565285930546.88,-11.04,0,0,0,0,0
1565285930562.5,-3.67,0,0,0,0,0
1565285930578.13,3.5,0,0,0,0,0
1565285930593.75,10.84,0,0,0,0,0
1565285930609.38,18.6,0,0,0,0,0
1565285930625,26.62,0,0,0,0,0
1565285930640.63,34.24,0,0,0,0,0
1565285930656.25,40.49,0,0,0,0,0
1565285930671.88,44.44,0,0,0,0,0
1565285930687.5,45.63,0,0,0,0,0
1565285930703.13,44.24,0,0,0,0,0
1565285930718.75,40.91,0,0,0,0,0
1565285930734.38,36.46,0,0,0,0,0
1565285930750,31.58,0,0,0,0,0
1565285930765.63,26.65,0,0,0,0,0
1565285930781.25,21.91,0,0,0,0,0
1565285930796.88,17.59,0,0,0,0,0
1565285930812.5,14.04,0,0,0,0,0
1565285930828.13,11.74,0,0,0,0,0
1565285930843.75,11.18,0,0,0,0,0
1565285930859.38,12.59,0,0,0,0,0
1565285930875,15.82,0,0,0,0,0
1565285930890.63,20.27,0,0,0,0,0
1565285930906.25,25.07,0,0,0,0,0
1565285930921.88,29.37,0,0,0,0,0
1565285930937.5,32.67,0,0,0,0,0
1565285930953.13,34.86,0,0,0,0,0
1565285930968.75,36.09,0,0,0,0,0
1565285930984.38,36.54,0,0,0,0,0
1565285931000,36.13,0,0,0,0,0
1565285931015.63,34.55,0,0,0,0,0
1565285931031.25,31.46,0,0,0,0,0
1565285931046.88,26.81,0,0,0,0,0
1565285931062.5,21.06,0,0,0,0,0
1565285931078.13,15.03,0,0,0,0,0
1565285931093.75,9.63,0,0,0,0,0
1565285931109.38,5.38,0,0,0,0,0
1565285931125,2.29,0,0,0,0,0
1565285931140.63,-0.23,0,0,0,0,0
1565285931156.25,-2.98,0,0,0,0,0
1565285931171.88,-6.65,0,0,0,0,0
1565285931187.5,-11.63,0,0,0,0,0
1565285931203.13,-17.8,0,0,0,0,0
1565285931218.75,-24.8,0,0,0,0,0
1565285931234.38,-31.99,0,0,0,0,0
1565285931250,-38.7,0,0,0,0,0
1565285931265.63,-44.19,0,0,0,0,0
1565285931281.25,-47.89,0,0,0,0,0
1565285931296.88,-49.42,0,0,0,0,0
1565285931312.5,-48.73,0,0,0,0,0
1565285931328.13,-46.09,0,0,0,0,0
1565285931343.75,-41.99,0,0,0,0,0
1565285931359.38,-37.01,0,0,0,0,0
1565285931375,-31.69,0,0,0,0,0
1565285931390.63,-26.4,0,0,0,0,0
1565285931406.25,-21.49,0,0,0,0,0
1565285931421.88,-17.26,0,0,0,0,0
1565285931437.5,-14.03,0,0,0,0,0
1565285931453.13,-11.93,0,0,0,0,0
1565285931468.75,-10.85,0,0,0,0,0
1565285931484.38,-10.43,0,0,0,0,0
1565285931500,-10.14,0,0,0,0,0
1565285931515.63,-9.41,0,0,0,0,0
1565285931531.25,-7.9,0,0,0,0,0
1565285931546.88,-5.48,0,0,0,0,0
1565285931562.5,-2.31,0,0,0,0,0
1565285931578.13,1.35,0,0,0,0,0
1565285931593.75,5.16,0,0,0,0,0
1565285931609.38,8.74,0,0,0,0,0
1565285931625,11.74,0,0,0,0,0
1565285931640.63,13.83,0,0,0,0,0
1565285931656.25,14.85,0,0,0,0,0
1565285931671.88,14.83,0,0,0,0,0
1565285931687.5,14.09,0,0,0,0,0
1565285931703.13,13.13,0,0,0,0,0
1565285931718.75,12.54,0,0,0,0,0
1565285931734.38,12.76,0,0,0,0,0
1565285931750,14.01,0,0,0,0,0
1565285931765.63,16.18,0,0,0,0,0
1565285931781.25,18.88,0,0,0,0,0
1565285931796.88,21.54,0,0,0,0,0
1565285931812.5,23.59,0,0,0,0,0
1565285931828.13,24.54,0,0,0,0,0
1565285931843.75,24.07,0,0,0,0,0
1565285931859.38,21.95,0,0,0,0,0
1565285931875,18.09,0,0,0,0,0
1565285931890.63,12.6,0,0,0,0,0
1565285931906.25,5.76,0,0,0,0,0
1565285931921.88,-1.87,0,0,0,0,0
1565285931937.5,-9.61,0,0,0,0,0
1565285931953.13,-16.79,0,0,0,0,0
1565285931968.75,-23,0,0,0,0,0
1565285931984.38,-28.21,0,0,0,0,0
1565285932000,-32.8,0,0,0,0,0
1565285932015.63,-37.34,0,0,0,0,0
1565285932031.25,-42.35,0,0,0,0,0
1565285932046.88,-48.03,0,0,0,0,0
1565285932062.5,-54.11,0,0,0,0,0
1565285932078.13,-59.9,0,0,0,0,0
1565285932093.75,-64.56,0,0,0,0,0
1565285932109.38,-67.44,0,0,0,0,0
1565285932125,-68.41,0,0,0,0,0
1565285932140.63,-67.89,0,0,0,0,0
1565285932156.25,-66.84,0,0,0,0,0
1565285932171.88,-66.49,0,0,0,0,0
1565285932187.5,-68.1,0,0,0,0,0
1565285932203.13,-72.76,0,0,0,0,0
1565285932218.75,-81.21,0,0,0,0,0
1565285932234.38,-93.67,0,0,0,0,0
1565285932250,-109.68,0,0,0,0,0
1565285932265.63,-127.98,0,0,0,0,0
1565285932281.25,-146.67,0,0,0,0,0
1565285932296.88,-163.58,0,0,0,0,0
1565285932312.5,-176.74,0,0,0,0,0
1565285932328.13,-184.78,0,0,0,0,0
1565285932343.75,-186.96,0,0,0,0,0
1565285932359.38,-182.86,0,0,0,0,0
1565285932375,-172.08,0,0,0,0,0
1565285932390.63,-154.16,0,0,0,0,0
1565285932406.25,-128.87,0,0,0,0,0
1565285932421.88,-96.84,0,0,0,0,0
1565285932437.5,-59.89,0,0,0,0,0
1565285932453.13,-20.89,0,0,0,0,0
1565285932468.75,16.92,0,0,0,0,0
1565285932484.38,50.82,0,0,0,0,0
1565285932500,79.34,0,0,0,0,0
1565285932515.63,102.35,0,0,0,0,0
1565285932531.25,120.77,0,0,0,0,0
1565285932546.88,135.84,0,0,0,0,0
1565285932562.5,148.46,0,0,0,0,0
1565285932578.13,159.07,0,0,0,0,0
1565285932593.75,167.57,0,0,0,0,0
1565285932609.38,173.66,0,0,0,0,0
1565285932625,177.05,0,0,0,0,0
1565285932640.63,177.65,0,0,0,0,0
1565285932656.25,175.51,0,0,0,0,0
1565285932671.88,170.92,0,0,0,0,0
1565285932687.5,164.47,0,0,0,0,0
1565285932703.13,157.05,0,0,0,0,0
1565285932718.75,149.71,0,0,0,0,0
1565285932734.38,143.35,0,0,0,0,0
1565285932750,138.22,0,0,0,0,0
1565285932765.63,133.66,0,0,0,0,0
1565285932781.25,128.18,0,0,0,0,0
1565285932796.88,120.01,0,0,0,0,0
1565285932812.5,108.03,0,0,0,0,0
1565285932828.13,92.43,0,0,0,0,0
1565285932843.75,74.67,0,0,0,0,0
1565285932859.38,56.9,0,0,0,0,0
1565285932875,41.03,0,0,0,0,0
1565285932890.63,27.9,0,0,0,0,0
1565285932906.25,17.13,0,0,0,0,0
1565285932921.88,7.46,0,0,0,0,0
1565285932937.5,-2.44,0,0,0,0,0
1565285932953.13,-13.28,0,0,0,0,0
1565285932968.75,-24.85,0,0,0,0,0
1565285932984.38,-36.13,0,0,0,0,0
1565285933000,-45.74,0,0,0,0,0
1565285933015.63,-52.42,0,0,0,0,0
1565285933031.25,-55.51,0,0,0,0,0
1565285933046.88,-54.96,0,0,0,0,0
1565285933062.5,-51.36,0,0,0,0,0
1565285933078.13,-45.62,0,0,0,0,0
1565285933093.75,-38.66,0,0,0,0,0
1565285933109.38,-31.21,0,0,0,0,0
1565285933125,-23.78,0,0,0,0,0
1565285933140.63,-16.68,0,0,0,0,0
1565285933156.25,-10.14,0,0,0,0,0
1565285933171.88,-4.44,0,0,0,0,0
1565285933187.5,0.27,0,0,0,0,0
1565285933203.13,4.04,0,0,0,0,0
1565285933218.75,7.2,0,0,0,0,0
1565285933234.38,10.37,0,0,0,0,0
1565285933250,14.09,0,0,0,0,0
1565285933265.63,18.77,0,0,0,0,0
1565285933281.25,24.36,0,0,0,0,0
1565285933296.88,30.4,0,0,0,0,0
1565285933312.5,36.11,0,0,0,0,0
1565285933328.13,40.81,0,0,0,0,0
1565285933343.75,44.08,0,0,0,0,0
1565285933359.38,46.02,0,0,0,0,0
1565285933375,47.17,0,0,0,0,0
1565285933390.63,48.28,0,0,0,0,0
1565285933406.25,49.91,0,0,0,0,0
1565285933421.88,52.24,0,0,0,0,0
1565285933437.5,54.9,0,0,0,0,0
1565285933453.13,57.2,0,0,0,0,0
1565285933468.75,58.35,0,0,0,0,0
1565285933484.38,57.78,0,0,0,0,0
1565285933500,55.28,0,0,0,0,0
1565285933515.63,50.97,0,0,0,0,0
1565285933531.25,45.15,0,0,0,0,0
1565285933546.88,38.25,0,0,0,0,0
1565285933562.5,30.64,0,0,0,0,0
1565285933578.13,22.73,0,0,0,0,0
1565285933593.75,14.91,0,0,0,0,0
1565285933609.38,7.66,0,0,0,0,0
1565285933625,1.34,0,0,0,0,0
1565285933640.63,-3.83,0,0,0,0,0
1565285933656.25,-7.8,0,0,0,0,0
1565285933671.88,-10.71,0,0,0,0,0
1565285933687.5,-12.91,0,0,0,0,0
1565285933703.13,-14.78,0,0,0,0,0
1565285933718.75,-16.7,0,0,0,0,0
1565285933734.38,-18.94,0,0,0,0,0
1565285933750,-21.63,0,0,0,0,0
1565285933765.63,-24.74,0,0,0,0,0
1565285933781.25,-28.01,0,0,0,0,0
1565285933796.88,-31.1,0,0,0,0,0
1565285933812.5,-33.63,0,0,0,0,0
1565285933828.13,-35.28,0,0,0,0,0
1565285933843.75,-35.93,0,0,0,0,0
1565285933859.38,-35.68,0,0,0,0,0
1565285933875,-34.86,0,0,0,0,0
1565285933890.63,-33.85,0,0,0,0,0
1565285933906.25,-33.04,0,0,0,0,0
1565285933921.88,-32.65,0,0,0,0,0
1565285933937.5,-32.66,0,0,0,0,0
1565285933953.13,-32.85,0,0,0,0,0
1565285933968.75,-32.89,0,0,0,0,0
1565285933984.38,-32.49,0,0,0,0,0
1565285934000,-31.49,0,0,0,0,0
1565285934015.63,-29.95,0,0,0,0,0
1565285934031.25,-27.98,0,0,0,0,0
1565285934046.88,-25.77,0,0,0,0,0
1565285934062.5,-23.46,0,0,0,0,0
1565285934078.13,-21.11,0,0,0,0,0
1565285934093.75,-18.79,0,0,0,0,0
1565285934109.38,-16.49,0,0,0,0,0
1565285934125,-14.28,0,0,0,0,0
1565285934140.63,-12.22,0,0,0,0,0
1565285934156.25,-10.43,0,0,0,0,0
1565285934171.88,-9.03,0,0,0,0,0
1565285934187.5,-8.15,0,0,0,0,0
1565285934203.13,-7.9,0,0,0,0,0
1565285934218.75,-8.38,0,0,0,0,0
1565285934234.38,-9.68,0,0,0,0,0
1565285934250,-11.81,0,0,0,0,0
1565285934265.63,-14.69,0,0,0,0,0
1565285934281.25,-18.08,0,0,0,0,0
1565285934296.88,-21.54,0,0,0,0,0
1565285934312.5,-24.54,0,0,0,0,0
1565285934328.13,-26.58,0,0,0,0,0
1565285934343.75,-27.36,0,0,0,0,0
1565285934359.38,-26.96,0,0,0,0,0
1565285934375,-25.8,0,0,0,0,0
1565285934390.63,-24.5,0,0,0,0,0
1565285934406.25,-23.66,0,0,0,0,0
1565285934421.88,-23.65,0,0,0,0,0
1565285934437.5,-24.52,0,0,0,0,0
1565285934453.13,-25.95,0,0,0,0,0
1565285934468.75,-27.42,0,0,0,0,0
1565285934484.38,-28.28,0,0,0,0,0
1565285934500,-27.96,0,0,0,0,0
1565285934515.63,-26.07,0,0,0,0,0
1565285934531.25,-22.46,0,0,0,0,0
1565285934546.88,-17.34,0,0,0,0,0
1565285934562.5,-11.22,0,0,0,0,0
1565285934578.13,-4.83,0,0,0,0,0
1565285934593.75,1.05,0,0,0,0,0
1565285934609.38,5.78,0,0,0,0,0
1565285934625,9.06,0,0,0,0,0
1565285934640.63,10.97,0,0,0,0,0
1565285934656.25,11.89,0,0,0,0,0
1565285934671.88,12.38,0,0,0,0,0
1565285934687.5,12.87,0,0,0,0,0
1565285934703.13,13.6,0,0,0,0,0
1565285934718.75,14.51,0,0,0,0,0
1565285934734.38,15.38,0,0,0,0,0
1565285934750,15.96,0,0,0,0,0
1565285934765.63,16.12,0,0,0,0,0
1565285934781.25,15.87,0,0,0,0,0
1565285934796.88,15.38,0,0,0,0,0
1565285934812.5,14.88,0,0,0,0,0
1565285934828.13,14.58,0,0,0,0,0
1565285934843.75,14.58,0,0,0,0,0
1565285934859.38,14.78,0,0,0,0,0
1565285934875,14.86,0,0,0,0,0
1565285934890.63,14.42,0,0,0,0,0
1565285934906.25,13.13,0,0,0,0,0
1565285934921.88,10.89,0,0,0,0,0
1565285934937.5,7.93,0,0,0,0,0
1565285934953.13,4.69,0,0,0,0,0
1565285934968.75,1.62,0,0,0,0,0
1565285934984.38,-1.03,0,0,0,0,0
1565285935000,-3.34,0,0,0,0,0
1565285935015.63,-5.55,0,0,0,0,0
1565285935031.25,-8,0,0,0,0,0
1565285935046.88,-10.86,0,0,0,0,0
1565285935062.5,-14.18,0,0,0,0,0
1565285935078.13,-17.82,0,0,0,0,0
1565285935093.75,-21.53,0,0,0,0,0
1565285935109.38,-25.05,0,0,0,0,0
1565285935125,-28.08,0,0,0,0,0
1565285935140.63,-30.23,0,0,0,0,0
1565285935156.25,-31.16,0,0,0,0,0
1565285935171.88,-30.58,0,0,0,0,0
1565285935187.5,-28.4,0,0,0,0,0
1565285935203.13,-24.78,0,0,0,0,0
1565285935218.75,-20.16,0,0,0,0,0
1565285935234.38,-15.1,0,0,0,0,0
1565285935250,-10.2,0,0,0,0,0
1565285935265.63,-5.92,0,0,0,0,0
1565285935281.25,-2.45,0,0,0,0,0
1565285935296.88,0.27,0,0,0,0,0
1565285935312.5,2.49,0,0,0,0,0
1565285935328.13,4.57,0,0,0,0,0
1565285935343.75,6.86,0,0,0,0,0
1565285935359.38,9.47,0,0,0,0,0
1565285935375,12.44,0,0,0,0,0
1565285935390.63,15.62,0,0,0,0,0
1565285935406.25,18.78,0,0,0,0,0
1565285935421.88,21.64,0,0,0,0,0
1565285935437.5,23.89,0,0,0,0,0
1565285935453.13,25.33,0,0,0,0,0
1565285935468.75,25.92,0,0,0,0,0
1565285935484.38,25.92,0,0,0,0,0
1565285935500,25.8,0,0,0,0,0
1565285935515.63,26.16,0,0,0,0,0
1565285935531.25,27.38,0,0,0,0,0
1565285935546.88,29.48,0,0,0,0,0
1565285935562.5,32.06,0,0,0,0,0
1565285935578.13,34.49,0,0,0,0,0
1565285935593.75,36.31,0,0,0,0,0
1565285935609.38,37.35,0,0,0,0,0
1565285935625,37.82,0,0,0,0,0
1565285935640.63,38.06,0,0,0,0,0
1565285935656.25,38.27,0,0,0,0,0
1565285935671.88,38.26,0,0,0,0,0
1565285935687.5,37.46,0,0,0,0,0
1565285935703.13,35.17,0,0,0,0,0
1565285935718.75,30.82,0,0,0,0,0
1565285935734.38,24.32,0,0,0,0,0
1565285935750,16.04,0,0,0,0,0
1565285935765.63,6.73,0,0,0,0,0
1565285935781.25,-2.74,0,0,0,0,0
1565285935796.88,-11.64,0,0,0,0,0
1565285935812.5,-19.47,0,0,0,0,0
1565285935828.13,-25.88,0,0,0,0,0
1565285935843.75,-30.63,0,0,0,0,0
1565285935859.38,-33.63,0,0,0,0,0
1565285935875,-34.88,0,0,0,0,0
1565285935890.63,-34.78,0,0,0,0,0
1565285935906.25,-34.04,0,0,0,0,0
1565285935921.88,-33.61,0,0,0,0,0
1565285935937.5,-34.32,0,0,0,0,0
1565285935953.13,-36.6,0,0,0,0,0
1565285935968.75,-40.24,0,0,0,0,0
1565285935984.38,-44.65,0,0,0,0,0
1565285936000,-49.1,0,0,0,0,0
1565285936015.63,-53.22,0,0,0,0,0
1565285936031.25,-57.1,0,0,0,0,0
1565285936046.88,-61.11,0,0,0,0,0
1565285936062.5,-65.55,0,0,0,0,0
1565285936078.13,-70.38,0,0,0,0,0
1565285936093.75,-75.1,0,0,0,0,0
1565285936109.38,-78.94,0,0,0,0,0
1565285936125,-81.27,0,0,0,0,0
1565285936140.63,-81.9,0,0,0,0,0
1565285936156.25,-81.04,0,0,0,0,0
1565285936171.88,-79.29,0,0,0,0,0
1565285936187.5,-77.19,0,0,0,0,0
1565285936203.13,-75.09,0,0,0,0,0
1565285936218.75,-72.99,0,0,0,0,0
1565285936234.38,-70.82,0,0,0,0,0
1565285936250,-68.47,0,0,0,0,0
1565285936265.63,-66.03,0,0,0,0,0
1565285936281.25,-63.58,0,0,0,0,0
1565285936296.88,-61.11,0,0,0,0,0
1565285936312.5,-58.25,0,0,0,0,0
1565285936328.13,-54.45,0,0,0,0,0
1565285936343.75,-49.2,0,0,0,0,0
1565285936359.38,-42.38,0,0,0,0,0
1565285936375,-34.61,0,0,0,0,0
1565285936390.63,-27.08,0,0,0,0,0
1565285936406.25,-21.2,0,0,0,0,0
1565285936421.88,-17.99,0,0,0,0,0
1565285936437.5,-17.67,0,0,0,0,0
1565285936453.13,-19.5,0,0,0,0,0
1565285936468.75,-22.15,0,0,0,0,0
1565285936484.38,-24.08,0,0,0,0,0
1565285936500,-24.03,0,0,0,0,0
1565285936515.63,-21.24,0,0,0,0,0
1565285936531.25,-15.4,0,0,0,0,0
1565285936546.88,-6.67,0,0,0,0,0
1565285936562.5,4.43,0,0,0,0,0
1565285936578.13,16.98,0,0,0,0,0
1565285936593.75,29.69,0,0,0,0,0
1565285936609.38,41.11,0,0,0,0,0
1565285936625,49.92,0,0,0,0,0
1565285936640.63,55.25,0,0,0,0,0
1565285936656.25,56.95,0,0,0,0,0
1565285936671.88,55.54,0,0,0,0,0
1565285936687.5,52.11,0,0,0,0,0
1565285936703.13,47.9,0,0,0,0,0
1565285936718.75,44.08,0,0,0,0,0
1565285936734.38,41.44,0,0,0,0,0
1565285936750,40.35,0,0,0,0,0
1565285936765.63,40.75,0,0,0,0,0
1565285936781.25,42.26,0,0,0,0,0
1565285936796.88,44.34,0,0,0,0,0
1565285936812.5,46.4,0,0,0,0,0
1565285936828.13,48.03,0,0,0,0,0
1565285936843.75,48.97,0,0,0,0,0
1565285936859.38,49.16,0,0,0,0,0
1565285936875,48.67,0,0,0,0,0
1565285936890.63,47.73,0,0,0,0,0
1565285936906.25,46.66,0,0,0,0,0
1565285936921.88,45.85,0,0,0,0,0
1565285936937.5,45.69,0,0,0,0,0
1565285936953.13,46.44,0,0,0,0,0
