Timestamp,BVP,Note,AGG,ED,SIB,Condition
1555489132000,-0,0,0,0,0,0
1555489132015.62,-0,0,0,0,0,0
1555489132031.25,-0,0,0,0,0,0
1555489132046.88,-0,0,0,0,0,0
1555489132062.5,-0,0,0,0,0,0
1555489132078.12,-0,0,0,0,0,0
1555489132093.75,-0,0,0,0,0,0
1555489132109.38,-0,0,0,0,0,0
1555489132125,-0,0,0,0,0,0
1555489132140.62,-0,0,0,0,0,0
1555489132156.25,0,0,0,0,0,0
1555489132171.88,0.01,0,0,0,0,0
1555489132187.5,0.01,0,0,0,0,0
1555489132203.12,-0,0,0,0,0,0
1555489132218.75,-0.03,0,0,0,0,0
1555489132234.38,-0.05,0,0,0,0,0
1555489132250,-0.05,0,0,0,0,0
1555489132265.62,0,0,0,0,0,0
1555489132281.25,0.13,0,0,0,0,0
1555489132296.88,0.36,0,0,0,0,0
1555489132312.5,0.66,0,0,0,0,0
1555489132328.12,1.01,0,0,0,0,0
1555489132343.75,1.37,0,0,0,0,0
1555489132359.38,1.72,0,0,0,0,0
1555489132375,2.06,0,0,0,0,0
1555489132390.62,2.4,0,0,0,0,0
1555489132406.25,2.79,0,0,0,0,0
1555489132421.88,3.24,0,0,0,0,0
1555489132437.5,3.8,0,0,0,0,0
1555489132453.12,4.42,0,0,0,0,0
1555489132468.75,5.06,0,0,0,0,0
1555489132484.38,5.66,0,0,0,0,0
1555489132500,6.2,0,0,0,0,0
1555489132515.62,6.68,0,0,0,0,0
1555489132531.25,7.15,0,0,0,0,0
1555489132546.88,7.68,0,0,0,0,0
1555489132562.5,8.31,0,0,0,0,0
1555489132578.12,9.14,0,0,0,0,0
1555489132593.75,10.09,0,0,0,0,0
1555489132609.38,11.04,0,0,0,0,0
1555489132625,11.88,0,0,0,0,0
1555489132640.62,12.56,0,0,0,0,0
1555489132656.25,13.14,0,0,0,0,0
1555489132671.88,13.76,0,0,0,0,0
1555489132687.5,14.65,0,0,0,0,0
1555489132703.12,15.96,0,0,0,0,0
1555489132718.75,17.91,0,0,0,0,0
1555489132734.38,20.32,0,0,0,0,0
1555489132750,22.9,0,0,0,0,0
1555489132765.62,25.38,0,0,0,0,0
1555489132781.25,27.58,0,0,0,0,0
1555489132796.88,29.57,0,0,0,0,0
1555489132812.5,31.68,0,0,0,0,0
1555489132828.12,34.32,0,0,0,0,0
1555489132843.75,37.81,0,0,0,0,0
1555489132859.38,42.54,0,0,0,0,0
1555489132875,48.15,0,0,0,0,0
1555489132890.62,54.1,0,0,0,0,0
1555489132906.25,59.83,0,0,0,0,0
1555489132921.88,64.97,0,0,0,0,0
1555489132937.5,69.58,0,0,0,0,0
1555489132953.12,74.14,0,0,0,0,0
1555489132968.75,79.34,0,0,0,0,0
1555489132984.38,85.71,0,0,0,0,0
1555489133000,93.76,0,0,0,0,0
1555489133015.62,103,0,0,0,0,0
1555489133031.25,112.62,0,0,0,0,0
1555489133046.88,121.73,0,0,0,0,0
1555489133062.5,129.77,0,0,0,0,0
1555489133078.12,136.75,0,0,0,0,0
1555489133093.75,143.3,0,0,0,0,0
1555489133109.38,150.75,0,0,0,0,0
1555489133125,157.77,0,0,0,0,0
1555489133140.62,166.64,0,0,0,0,0
1555489133156.25,177.95,0,0,0,0,0
1555489133171.88,191.79,0,0,0,0,0
1555489133187.5,206.97,0,0,0,0,0
1555489133203.12,220.57,0,0,0,0,0
1555489133218.75,228.25,0,0,0,0,0
1555489133234.38,225.36,0,0,0,0,0
1555489133250,208.53,0,0,0,0,0
1555489133265.62,176.87,0,0,0,0,0
1555489133281.25,132.76,0,0,0,0,0
1555489133296.88,80.05,0,0,0,0,0
1555489133312.5,23.07,0,0,0,0,0
1555489133328.12,-34.94,0,0,0,0,0
1555489133343.75,-92.44,0,0,0,0,0
1555489133359.38,-149.16,0,0,0,0,0
1555489133375,-205.23,0,0,0,0,0
1555489133390.62,-260.37,0,0,0,0,0
1555489133406.25,-313.74,0,0,0,0,0
1555489133421.88,-363.87,0,0,0,0,0
1555489133437.5,-409.83,0,0,0,0,0
1555489133453.12,-450.91,0,0,0,0,0
1555489133468.75,-486.5,0,0,0,0,0
1555489133484.38,-515.74,0,0,0,0,0
1555489133500,-537.23,0,0,0,0,0
1555489133515.62,-549.22,0,0,0,0,0
1555489133531.25,-549.95,0,0,0,0,0
1555489133546.88,-538.35,0,0,0,0,0
1555489133562.5,-514.17,0,0,0,0,0
1555489133578.12,-478.62,0,0,0,0,0
1555489133593.75,-433.8,0,0,0,0,0
1555489133609.38,-382.34,0,0,0,0,0
1555489133625,-326.87,0,0,0,0,0
1555489133640.62,-269.65,0,0,0,0,0
1555489133656.25,-212.4,0,0,0,0,0
1555489133671.88,-156.37,0,0,0,0,0
1555489133687.5,-102.61,0,0,0,0,0
1555489133703.12,-51.97,0,0,0,0,0
1555489133718.75,-5.44,0,0,0,0,0
1555489133734.38,36.11,0,0,0,0,0
1555489133750,72.02,0,0,0,0,0
1555489133765.62,102.01,0,0,0,0,0
1555489133781.25,126.23,0,0,0,0,0
1555489133796.88,145.18,0,0,0,0,0
1555489133812.5,159.57,0,0,0,0,0
1555489133828.12,170.1,0,0,0,0,0
1555489133843.75,177.41,0,0,0,0,0
1555489133859.38,181.88,0,0,0,0,0
1555489133875,183.81,0,0,0,0,0
1555489133890.62,183.41,0,0,0,0,0
1555489133906.25,180.98,0,0,0,0,0
1555489133921.88,176.84,0,0,0,0,0
1555489133937.5,171.41,0,0,0,0,0
1555489133953.12,165.11,0,0,0,0,0
1555489133968.75,158.27,0,0,0,0,0
1555489133984.38,151.15,0,0,0,0,0
1555489134000,143.89,0,0,0,0,0
1555489134015.62,136.55,0,0,0,0,0
1555489134031.25,129.18,0,0,0,0,0
1555489134046.88,121.82,0,0,0,0,0
1555489134062.5,114.54,0,0,0,0,0
1555489134078.12,107.41,0,0,0,0,0
1555489134093.75,100.5,0,0,0,0,0
1555489134109.38,93.86,0,0,0,0,0
1555489134125,87.53,0,0,0,0,0
1555489134140.62,81.51,0,0,0,0,0
1555489134156.25,75.83,0,0,0,0,0
1555489134171.88,70.5,0,0,0,0,0
1555489134187.5,65.51,0,0,0,0,0
1555489134203.12,60.89,0,0,0,0,0
1555489134218.75,56.64,0,0,0,0,0
1555489134234.38,52.77,0,0,0,0,0
1555489134250,49.28,0,0,0,0,0
1555489134265.62,46.15,0,0,0,0,0
1555489134281.25,43.39,0,0,0,0,0
1555489134296.88,40.99,0,0,0,0,0
1555489134312.5,38.93,0,0,0,0,0
1555489134328.12,37.21,0,0,0,0,0
1555489134343.75,35.83,0,0,0,0,0
1555489134359.38,34.8,0,0,0,0,0
1555489134375,34.11,0,0,0,0,0
1555489134390.62,33.77,0,0,0,0,0
1555489134406.25,33.74,0,0,0,0,0
1555489134421.88,33.98,0,0,0,0,0
1555489134437.5,34.45,0,0,0,0,0
1555489134453.12,35.05,0,0,0,0,0
1555489134468.75,35.64,0,0,0,0,0
1555489134484.38,36.08,0,0,0,0,0
1555489134500,36.2,0,0,0,0,0
1555489134515.62,35.8,0,0,0,0,0
1555489134531.25,34.73,0,0,0,0,0
1555489134546.88,32.84,0,0,0,0,0
1555489134562.5,30.06,0,0,0,0,0
1555489134578.12,26.37,0,0,0,0,0
1555489134593.75,21.86,0,0,0,0,0
1555489134609.38,16.61,0,0,0,0,0
1555489134625,10.82,0,0,0,0,0
1555489134640.62,4.74,0,0,0,0,0
1555489134656.25,-1.34,0,0,0,0,0
1555489134671.88,-7.15,0,0,0,0,0
1555489134687.5,-12.44,0,0,0,0,0
1555489134703.12,-16.98,0,0,0,0,0
1555489134718.75,-20.63,0,0,0,0,0
1555489134734.38,-23.31,0,0,0,0,0
1555489134750,-25,0,0,0,0,0
1555489134765.62,-25.74,0,0,0,0,0
1555489134781.25,-25.65,0,0,0,0,0
1555489134796.88,-24.87,0,0,0,0,0
1555489134812.5,-23.53,0,0,0,0,0
1555489134828.12,-21.8,0,0,0,0,0
1555489134843.75,-19.82,0,0,0,0,0
1555489134859.38,-17.7,0,0,0,0,0
1555489134875,-15.55,0,0,0,0,0
1555489134890.62,-13.43,0,0,0,0,0
1555489134906.25,-11.34,0,0,0,0,0
1555489134921.88,-9.35,0,0,0,0,0
1555489134937.5,-7.46,0,0,0,0,0
1555489134953.12,-5.67,0,0,0,0,0
1555489134968.75,-3.96,0,0,0,0,0
1555489134984.38,-2.25,0,0,0,0,0
1555489135000,-0.47,0,0,0,0,0
1555489135015.62,1.49,0,0,0,0,0
1555489135031.25,3.74,0,0,0,0,0
1555489135046.88,6.39,0,0,0,0,0
1555489135062.5,9.48,0,0,0,0,0
1555489135078.12,13.03,0,0,0,0,0
1555489135093.75,17.06,0,0,0,0,0
1555489135109.38,21.51,0,0,0,0,0
1555489135125,26.32,0,0,0,0,0
1555489135140.62,31.38,0,0,0,0,0
1555489135156.25,36.57,0,0,0,0,0
1555489135171.88,41.76,0,0,0,0,0
1555489135187.5,46.88,0,0,0,0,0
1555489135203.12,51.68,0,0,0,0,0
1555489135218.75,56.05,0,0,0,0,0
1555489135234.38,59.91,0,0,0,0,0
1555489135250,63.28,0,0,0,0,0
1555489135265.62,66.25,0,0,0,0,0
1555489135281.25,68.95,0,0,0,0,0
1555489135296.88,71.53,0,0,0,0,0
1555489135312.5,74.21,0,0,0,0,0
1555489135328.12,77.2,0,0,0,0,0
1555489135343.75,80.47,0,0,0,0,0
1555489135359.38,84.01,0,0,0,0,0
1555489135375,87.85,0,0,0,0,0
1555489135390.62,91.96,0,0,0,0,0
1555489135406.25,96.35,0,0,0,0,0
1555489135421.88,101.01,0,0,0,0,0
1555489135437.5,105.95,0,0,0,0,0
1555489135453.12,111.19,0,0,0,0,0
1555489135468.75,116.77,0,0,0,0,0
1555489135484.38,122.39,0,0,0,0,0
1555489135500,127.8,0,0,0,0,0
1555489135515.62,132.77,0,0,0,0,0
1555489135531.25,137.08,0,0,0,0,0
1555489135546.88,140.39,0,0,0,0,0
1555489135562.5,142.34,0,0,0,0,0
1555489135578.12,142.39,0,0,0,0,0
1555489135593.75,139.76,0,0,0,0,0
1555489135609.38,135.92,0,0,0,0,0
1555489135625,131.36,0,0,0,0,0
1555489135640.62,126.42,0,0,0,0,0
1555489135656.25,121.33,0,0,0,0,0
1555489135671.88,116.29,0,0,0,0,0
1555489135687.5,111.47,0,0,0,0,0
1555489135703.12,107.03,0,0,0,0,0
1555489135718.75,103.16,0,0,0,0,0
1555489135734.38,100.01,0,0,0,0,0
1555489135750,97.74,0,0,0,0,0
1555489135765.62,96.16,0,0,0,0,0
1555489135781.25,95.08,0,0,0,0,0
1555489135796.88,94.32,0,0,0,0,0
1555489135812.5,93.67,0,0,0,0,0
1555489135828.12,92.88,0,0,0,0,0
1555489135843.75,91.72,0,0,0,0,0
1555489135859.38,89.95,0,0,0,0,0
1555489135875,87.4,0,0,0,0,0
1555489135890.62,84.01,0,0,0,0,0
1555489135906.25,79.5,0,0,0,0,0
1555489135921.88,73.8,0,0,0,0,0
1555489135937.5,66.96,0,0,0,0,0
1555489135953.12,59.15,0,0,0,0,0
1555489135968.75,50.64,0,0,0,0,0
1555489135984.38,41.76,0,0,0,0,0
1555489136000,32.88,0,0,0,0,0
1555489136015.62,24.37,0,0,0,0,0
1555489136031.25,16.59,0,0,0,0,0
1555489136046.88,9.66,0,0,0,0,0
1555489136062.5,3.67,0,0,0,0,0
1555489136078.12,-1.36,0,0,0,0,0
1555489136093.75,-5.48,0,0,0,0,0
1555489136109.38,-8.8,0,0,0,0,0
1555489136125,-11.47,0,0,0,0,0
1555489136140.62,-13.65,0,0,0,0,0
1555489136156.25,-15.49,0,0,0,0,0
1555489136171.88,-17.12,0,0,0,0,0
1555489136187.5,-18.66,0,0,0,0,0
1555489136203.12,-20.18,0,0,0,0,0
1555489136218.75,-21.72,0,0,0,0,0
1555489136234.38,-23.21,0,0,0,0,0
1555489136250,-24.6,0,0,0,0,0
1555489136265.62,-25.85,0,0,0,0,0
1555489136281.25,-26.87,0,0,0,0,0
1555489136296.88,-27.64,0,0,0,0,0
1555489136312.5,-28.13,0,0,0,0,0
1555489136328.12,-28.42,0,0,0,0,0
1555489136343.75,-28.56,0,0,0,0,0
1555489136359.38,-28.65,0,0,0,0,0
1555489136375,-28.8,0,0,0,0,0
1555489136390.62,-29.07,0,0,0,0,0
1555489136406.25,-29.53,0,0,0,0,0
1555489136421.88,-30.21,0,0,0,0,0
1555489136437.5,-31.11,0,0,0,0,0
1555489136453.12,-32.24,0,0,0,0,0
1555489136468.75,-33.58,0,0,0,0,0
1555489136484.38,-35.17,0,0,0,0,0
1555489136500,-37.02,0,0,0,0,0
1555489136515.62,-39.09,0,0,0,0,0
1555489136531.25,-41.32,0,0,0,0,0
1555489136546.88,-43.5,0,0,0,0,0
1555489136562.5,-45.32,0,0,0,0,0
1555489136578.12,-46.47,0,0,0,0,0
1555489136593.75,-46.66,0,0,0,0,0
1555489136609.38,-45.66,0,0,0,0,0
1555489136625,-43.41,0,0,0,0,0
1555489136640.62,-39.99,0,0,0,0,0
1555489136656.25,-35.51,0,0,0,0,0
1555489136671.88,-30.13,0,0,0,0,0
1555489136687.5,-23.95,0,0,0,0,0
1555489136703.12,-17.08,0,0,0,0,0
1555489136718.75,-9.68,0,0,0,0,0
1555489136734.38,-2.06,0,0,0,0,0
1555489136750,5.33,0,0,0,0,0
1555489136765.62,11.84,0,0,0,0,0
1555489136781.25,16.83,0,0,0,0,0
1555489136796.88,19.77,0,0,0,0,0
1555489136812.5,20.48,0,0,0,0,0
1555489136828.12,19.13,0,0,0,0,0
1555489136843.75,16.28,0,0,0,0,0
1555489136859.38,12.62,0,0,0,0,0
1555489136875,8.65,0,0,0,0,0
1555489136890.62,4.3,0,0,0,0,0
1555489136906.25,-0.91,0,0,0,0,0
1555489136921.88,-7.64,0,0,0,0,0
1555489136937.5,-16.05,0,0,0,0,0
1555489136953.12,-26.05,0,0,0,0,0
1555489136968.75,-36.99,0,0,0,0,0
1555489136984.38,-47.85,0,0,0,0,0
1555489137000,-57.44,0,0,0,0,0
1555489137015.62,-64.96,0,0,0,0,0
1555489137031.25,-70.74,0,0,0,0,0
1555489137046.88,-76.07,0,0,0,0,0
1555489137062.5,-82.79,0,0,0,0,0
1555489137078.12,-92.19,0,0,0,0,0
1555489137093.75,-104.79,0,0,0,0,0
1555489137109.38,-119.82,0,0,0,0,0
1555489137125,-135.47,0,0,0,0,0
1555489137140.62,-149.45,0,0,0,0,0
1555489137156.25,-160.06,0,0,0,0,0
1555489137171.88,-167.73,0,0,0,0,0
1555489137187.5,-174.55,0,0,0,0,0
1555489137203.12,-183.69,0,0,0,0,0
1555489137218.75,-197.34,0,0,0,0,0
1555489137234.38,-216.66,0,0,0,0,0
1555489137250,-240.73,0,0,0,0,0
1555489137265.62,-266.42,0,0,0,0,0
1555489137281.25,-289.02,0,0,0,0,0
1555489137296.88,-303.91,0,0,0,0,0
1555489137312.5,-310.14,0,0,0,0,0
1555489137328.12,-309.84,0,0,0,0,0
1555489137343.75,-307.69,0,0,0,0,0
1555489137359.38,-307.18,0,0,0,0,0
1555489137375,-312.47,0,0,0,0,0
1555489137390.62,-326.68,0,0,0,0,0
1555489137406.25,-351.28,0,0,0,0,0
1555489137421.88,-384.23,0,0,0,0,0
1555489137437.5,-420.11,0,0,0,0,0
1555489137453.12,-453.99,0,0,0,0,0
1555489137468.75,-479.34,0,0,0,0,0
1555489137484.38,-490.35,0,0,0,0,0
1555489137500,-480.37,0,0,0,0,0
1555489137515.62,-451.84,0,0,0,0,0
1555489137531.25,-415.22,0,0,0,0,0
1555489137546.88,-385.83,0,0,0,0,0
1555489137562.5,-374.91,0,0,0,0,0
1555489137578.12,-385.17,0,0,0,0,0
1555489137593.75,-414.98,0,0,0,0,0
1555489137609.38,-456.06,0,0,0,0,0
1555489137625,-498.73,0,0,0,0,0
1555489137640.62,-529.45,0,0,0,0,0
1555489137656.25,-544.74,0,0,0,0,0
1555489137671.88,-548.21,0,0,0,0,0
1555489137687.5,-547.54,0,0,0,0,0
1555489137703.12,-546.42,0,0,0,0,0
1555489137718.75,-544.43,0,0,0,0,0
1555489137734.38,-546.06,0,0,0,0,0
1555489137750,-555.76,0,0,0,0,0
1555489137765.62,-578.09,0,0,0,0,0
1555489137781.25,-607.07,0,0,0,0,0
1555489137796.88,-639.91,0,0,0,0,0
1555489137812.5,-674.41,0,0,0,0,0
1555489137828.12,-710.36,0,0,0,0,0
1555489137843.75,-745.02,0,0,0,0,0
1555489137859.38,-734.64,0,0,0,0,0
1555489137875,-653.72,0,0,0,0,0
1555489137890.62,-495.7,0,0,0,0,0
1555489137906.25,-332.42,0,0,0,0,0
1555489137921.88,-198.44,0,0,0,0,0
1555489137937.5,-109.51,0,0,0,0,0
1555489137953.12,-48.42,0,0,0,0,0
1555489137968.75,-5.48,0,0,0,0,0
1555489137984.38,27.89,0,0,0,0,0
1555489138000,58.17,0,0,0,0,0
1555489138015.62,82.66,0,0,0,0,0
1555489138031.25,97.46,0,0,0,0,0
1555489138046.88,99.7,0,0,0,0,0
1555489138062.5,98.71,0,0,0,0,0
1555489138078.12,100.8,0,0,0,0,0
1555489138093.75,110.11,0,0,0,0,0
1555489138109.38,126.4,0,0,0,0,0
1555489138125,150.2,0,0,0,0,0
1555489138140.62,181.93,0,0,0,0,0
1555489138156.25,216.09,0,0,0,0,0
1555489138171.88,247.22,0,0,0,0,0
1555489138187.5,271.25,0,0,0,0,0
1555489138203.12,293.56,0,0,0,0,0
1555489138218.75,317.04,0,0,0,0,0
1555489138234.38,342.55,0,0,0,0,0
1555489138250,367.36,0,0,0,0,0
1555489138265.62,389.62,0,0,0,0,0
1555489138281.25,407.98,0,0,0,0,0
1555489138296.88,418.33,0,0,0,0,0
1555489138312.5,417.51,0,0,0,0,0
1555489138328.12,404.19,0,0,0,0,0
1555489138343.75,383.71,0,0,0,0,0
1555489138359.38,360.16,0,0,0,0,0
1555489138375,336.4,0,0,0,0,0
1555489138390.62,312.87,0,0,0,0,0
1555489138406.25,290.2,0,0,0,0,0
1555489138421.88,268.9,0,0,0,0,0
1555489138437.5,247.68,0,0,0,0,0
1555489138453.12,225.35,0,0,0,0,0
1555489138468.75,201.21,0,0,0,0,0
1555489138484.38,177.51,0,0,0,0,0
1555489138500,155.71,0,0,0,0,0
1555489138515.62,136.66,0,0,0,0,0
1555489138531.25,120.14,0,0,0,0,0
1555489138546.88,106.13,0,0,0,0,0
1555489138562.5,94.75,0,0,0,0,0
1555489138578.12,85.49,0,0,0,0,0
1555489138593.75,77.84,0,0,0,0,0
1555489138609.38,71.38,0,0,0,0,0
1555489138625,66.7,0,0,0,0,0
1555489138640.62,64.29,0,0,0,0,0
1555489138656.25,64.61,0,0,0,0,0
1555489138671.88,68.01,0,0,0,0,0
1555489138687.5,75.11,0,0,0,0,0
1555489138703.12,86.39,0,0,0,0,0
1555489138718.75,101.88,0,0,0,0,0
1555489138734.38,121.06,0,0,0,0,0
1555489138750,142.82,0,0,0,0,0
1555489138765.62,165.68,0,0,0,0,0
1555489138781.25,188.33,0,0,0,0,0
1555489138796.88,209.9,0,0,0,0,0
1555489138812.5,230.17,0,0,0,0,0
1555489138828.12,249.4,0,0,0,0,0
1555489138843.75,268.03,0,0,0,0,0
1555489138859.38,286.27,0,0,0,0,0
1555489138875,303.84,0,0,0,0,0
1555489138890.62,320.17,0,0,0,0,0
1555489138906.25,334.52,0,0,0,0,0
1555489138921.88,346.54,0,0,0,0,0
1555489138937.5,356.48,0,0,0,0,0
1555489138953.12,365.27,0,0,0,0,0
1555489138968.75,374.43,0,0,0,0,0
1555489138984.38,385.88,0,0,0,0,0
1555489139000,401.63,0,0,0,0,0
1555489139015.62,423.37,0,0,0,0,0
1555489139031.25,451.69,0,0,0,0,0
1555489139046.88,485.36,0,0,0,0,0
1555489139062.5,521.13,0,0,0,0,0
1555489139078.12,554.06,0,0,0,0,0
1555489139093.75,578.65,0,0,0,0,0
1555489139109.38,590.46,0,0,0,0,0
1555489139125,587.25,0,0,0,0,0
1555489139140.62,569.45,0,0,0,0,0
1555489139156.25,539.58,0,0,0,0,0
1555489139171.88,500.91,0,0,0,0,0
1555489139187.5,456.08,0,0,0,0,0
1555489139203.12,406.32,0,0,0,0,0
1555489139218.75,351.67,0,0,0,0,0
1555489139234.38,292.2,0,0,0,0,0
1555489139250,229.53,0,0,0,0,0
1555489139265.62,167.56,0,0,0,0,0
1555489139281.25,112.02,0,0,0,0,0
1555489139296.88,68.69,0,0,0,0,0
1555489139312.5,41.29,0,0,0,0,0
1555489139328.12,30.11,0,0,0,0,0
1555489139343.75,32.1,0,0,0,0,0
1555489139359.38,42.24,0,0,0,0,0
1555489139375,55.34,0,0,0,0,0
1555489139390.62,67.55,0,0,0,0,0
1555489139406.25,76.33,0,0,0,0,0
1555489139421.88,79.86,0,0,0,0,0
1555489139437.5,76.44,0,0,0,0,0
1555489139453.12,64.38,0,0,0,0,0
1555489139468.75,42.66,0,0,0,0,0
1555489139484.38,11.7,0,0,0,0,0
1555489139500,-26.58,0,0,0,0,0
1555489139515.62,-69.62,0,0,0,0,0
1555489139531.25,-115.24,0,0,0,0,0
1555489139546.88,-162.04,0,0,0,0,0
1555489139562.5,-208.76,0,0,0,0,0
1555489139578.12,-252.95,0,0,0,0,0
1555489139593.75,-290.47,0,0,0,0,0
1555489139609.38,-316.11,0,0,0,0,0
1555489139625,-325.38,0,0,0,0,0
1555489139640.62,-316.71,0,0,0,0,0
1555489139656.25,-292.6,0,0,0,0,0
1555489139671.88,-259.1,0,0,0,0,0
1555489139687.5,-223.99,0,0,0,0,0
1555489139703.12,-194.38,0,0,0,0,0
1555489139718.75,-174.91,0,0,0,0,0
1555489139734.38,-167.15,0,0,0,0,0
1555489139750,-169.9,0,0,0,0,0
1555489139765.62,-180.3,0,0,0,0,0
1555489139781.25,-194.75,0,0,0,0,0
1555489139796.88,-209.61,0,0,0,0,0
1555489139812.5,-221.61,0,0,0,0,0
1555489139828.12,-228.22,0,0,0,0,0
1555489139843.75,-227.87,0,0,0,0,0
1555489139859.38,-220.2,0,0,0,0,0
1555489139875,-206.16,0,0,0,0,0
1555489139890.62,-187.8,0,0,0,0,0
1555489139906.25,-167.95,0,0,0,0,0
1555489139921.88,-149.71,0,0,0,0,0
1555489139937.5,-135.55,0,0,0,0,0
1555489139953.12,-126.45,0,0,0,0,0
1555489139968.75,-121.65,0,0,0,0,0
1555489139984.38,-119.11,0,0,0,0,0
1555489140000,-116.56,0,0,0,0,0
1555489140015.62,-112.64,0,0,0,0,0
1555489140031.25,-107.24,0,0,0,0,0
1555489140046.88,-101.02,0,0,0,0,0
1555489140062.5,-94.2,0,0,0,0,0
1555489140078.12,-85.57,0,0,0,0,0
1555489140093.75,-72.53,0,0,0,0,0
1555489140109.38,-52.26,0,0,0,0,0
1555489140125,-23.23,0,0,0,0,0
1555489140140.62,13.86,0,0,0,0,0
1555489140156.25,56.2,0,0,0,0,0
1555489140171.88,100.13,0,0,0,0,0
1555489140187.5,142.64,0,0,0,0,0
1555489140203.12,182.07,0,0,0,0,0
1555489140218.75,217.62,0,0,0,0,0
1555489140234.38,248.04,0,0,0,0,0
1555489140250,270.75,0,0,0,0,0
1555489140265.62,282.37,0,0,0,0,0
1555489140281.25,280.39,0,0,0,0,0
1555489140296.88,265.15,0,0,0,0,0
1555489140312.5,240.58,0,0,0,0,0
1555489140328.12,213.1,0,0,0,0,0
1555489140343.75,189.06,0,0,0,0,0
1555489140359.38,172.39,0,0,0,0,0
1555489140375,163.42,0,0,0,0,0
1555489140390.62,159.76,0,0,0,0,0
1555489140406.25,158.3,0,0,0,0,0
1555489140421.88,156.95,0,0,0,0,0
1555489140437.5,155.26,0,0,0,0,0
1555489140453.12,153.62,0,0,0,0,0
1555489140468.75,151.99,0,0,0,0,0
1555489140484.38,149.17,0,0,0,0,0
1555489140500,143.17,0,0,0,0,0
1555489140515.62,132.09,0,0,0,0,0
1555489140531.25,115.12,0,0,0,0,0
1555489140546.88,92.8,0,0,0,0,0
1555489140562.5,66.51,0,0,0,0,0
1555489140578.12,38.23,0,0,0,0,0
1555489140593.75,10.23,0,0,0,0,0
1555489140609.38,-14.74,0,0,0,0,0
1555489140625,-33.53,0,0,0,0,0
1555489140640.62,-42.98,0,0,0,0,0
1555489140656.25,-40.79,0,0,0,0,0
1555489140671.88,-26.63,0,0,0,0,0
1555489140687.5,-2.68,0,0,0,0,0
1555489140703.12,26.63,0,0,0,0,0
1555489140718.75,55.99,0,0,0,0,0
1555489140734.38,80.55,0,0,0,0,0
1555489140750,97.04,0,0,0,0,0
1555489140765.62,103.95,0,0,0,0,0
1555489140781.25,101.07,0,0,0,0,0
1555489140796.88,89.09,0,0,0,0,0
1555489140812.5,69.49,0,0,0,0,0
1555489140828.12,44.79,0,0,0,0,0
1555489140843.75,18.65,0,0,0,0,0
1555489140859.38,-4.61,0,0,0,0,0
1555489140875,-21.41,0,0,0,0,0
1555489140890.62,-30.43,0,0,0,0,0
1555489140906.25,-33.64,0,0,0,0,0
1555489140921.88,-35.85,0,0,0,0,0
1555489140937.5,-42.85,0,0,0,0,0
1555489140953.12,-59.1,0,0,0,0,0
1555489140968.75,-85.73,0,0,0,0,0
1555489140984.38,-120.15,0,0,0,0,0
1555489141000,-157.11,0,0,0,0,0
1555489141015.62,-190.82,0,0,0,0,0
1555489141031.25,-216.88,0,0,0,0,0
1555489141046.88,-233.5,0,0,0,0,0
1555489141062.5,-241.51,0,0,0,0,0
1555489141078.12,-243.45,0,0,0,0,0
1555489141093.75,-242.34,0,0,0,0,0
1555489141109.38,-240.45,0,0,0,0,0
1555489141125,-238.77,0,0,0,0,0
1555489141140.62,-236.91,0,0,0,0,0
1555489141156.25,-233.4,0,0,0,0,0
1555489141171.88,-226.05,0,0,0,0,0
1555489141187.5,-212.41,0,0,0,0,0
1555489141203.12,-190.28,0,0,0,0,0
1555489141218.75,-158.1,0,0,0,0,0
1555489141234.38,-115.68,0,0,0,0,0
1555489141250,-64.52,0,0,0,0,0
1555489141265.62,-8.05,0,0,0,0,0
1555489141281.25,48.76,0,0,0,0,0
1555489141296.88,100.31,0,0,0,0,0
1555489141312.5,141.91,0,0,0,0,0
1555489141328.12,170.76,0,0,0,0,0
1555489141343.75,186.53,0,0,0,0,0
1555489141359.38,190.95,0,0,0,0,0
1555489141375,186.75,0,0,0,0,0
1555489141390.62,176.66,0,0,0,0,0
1555489141406.25,162.79,0,0,0,0,0
1555489141421.88,146.61,0,0,0,0,0
1555489141437.5,129.37,0,0,0,0,0
1555489141453.12,112.57,0,0,0,0,0
1555489141468.75,97.68,0,0,0,0,0
1555489141484.38,85.83,0,0,0,0,0
1555489141500,77.1,0,0,0,0,0
1555489141515.62,70.33,0,0,0,0,0
1555489141531.25,63.81,0,0,0,0,0
1555489141546.88,55.88,0,0,0,0,0
1555489141562.5,45.94,0,0,0,0,0
1555489141578.12,34.52,0,0,0,0,0
1555489141593.75,22.86,0,0,0,0,0
1555489141609.38,12.21,0,0,0,0,0
1555489141625,3.11,0,0,0,0,0
1555489141640.62,-4.74,0,0,0,0,0
1555489141656.25,-12.4,0,0,0,0,0
1555489141671.88,-20.91,0,0,0,0,0
1555489141687.5,-31.04,0,0,0,0,0
1555489141703.12,-42.99,0,0,0,0,0
1555489141718.75,-56.6,0,0,0,0,0
1555489141734.38,-71.32,0,0,0,0,0
1555489141750,-86.32,0,0,0,0,0
1555489141765.62,-100.23,0,0,0,0,0
1555489141781.25,-111.07,0,0,0,0,0
1555489141796.88,-116.6,0,0,0,0,0
1555489141812.5,-114.76,0,0,0,0,0
1555489141828.12,-104.61,0,0,0,0,0
1555489141843.75,-86.8,0,0,0,0,0
1555489141859.38,-63.59,0,0,0,0,0
1555489141875,-38.29,0,0,0,0,0
1555489141890.62,-14.44,0,0,0,0,0
1555489141906.25,5.04,0,0,0,0,0
1555489141921.88,18.31,0,0,0,0,0
1555489141937.5,24.79,0,0,0,0,0
1555489141953.12,25.16,0,0,0,0,0
1555489141968.75,20.92,0,0,0,0,0
1555489141984.38,14.18,0,0,0,0,0
1555489142000,7.3,0,0,0,0,0
1555489142015.62,2.61,0,0,0,0,0
1555489142031.25,2.21,0,0,0,0,0
1555489142046.88,7.46,0,0,0,0,0
1555489142062.5,18.65,0,0,0,0,0
1555489142078.12,34.81,0,0,0,0,0
1555489142093.75,53.83,0,0,0,0,0
1555489142109.38,72.61,0,0,0,0,0
1555489142125,87.94,0,0,0,0,0
1555489142140.62,97.34,0,0,0,0,0
1555489142156.25,99.71,0,0,0,0,0
1555489142171.88,95.8,0,0,0,0,0
1555489142187.5,87.81,0,0,0,0,0
1555489142203.12,78.88,0,0,0,0,0
1555489142218.75,72.04,0,0,0,0,0
1555489142234.38,69.58,0,0,0,0,0
1555489142250,72.71,0,0,0,0,0
1555489142265.62,81.5,0,0,0,0,0
1555489142281.25,94.75,0,0,0,0,0
1555489142296.88,109.99,0,0,0,0,0
1555489142312.5,123.49,0,0,0,0,0
1555489142328.12,130.64,0,0,0,0,0
1555489142343.75,127.05,0,0,0,0,0
1555489142359.38,110.12,0,0,0,0,0
1555489142375,80.79,0,0,0,0,0
1555489142390.62,44.35,0,0,0,0,0
1555489142406.25,9.67,0,0,0,0,0
1555489142421.88,-13.43,0,0,0,0,0
1555489142437.5,-17.87,0,0,0,0,0
1555489142453.12,-1.72,0,0,0,0,0
1555489142468.75,31.19,0,0,0,0,0
1555489142484.38,73.08,0,0,0,0,0
1555489142500,115.13,0,0,0,0,0
1555489142515.62,150.15,0,0,0,0,0
1555489142531.25,173.63,0,0,0,0,0
1555489142546.88,183.53,0,0,0,0,0
1555489142562.5,179.39,0,0,0,0,0
1555489142578.12,162.18,0,0,0,0,0
1555489142593.75,134.95,0,0,0,0,0
1555489142609.38,103.09,0,0,0,0,0
1555489142625,73.57,0,0,0,0,0
1555489142640.62,52.6,0,0,0,0,0
1555489142656.25,43.26,0,0,0,0,0
1555489142671.88,44.14,0,0,0,0,0
1555489142687.5,50.47,0,0,0,0,0
1555489142703.12,56.83,0,0,0,0,0
1555489142718.75,59.76,0,0,0,0,0
1555489142734.38,58.57,0,0,0,0,0
1555489142750,54.14,0,0,0,0,0
1555489142765.62,47.15,0,0,0,0,0
1555489142781.25,36.81,0,0,0,0,0
1555489142796.88,21.58,0,0,0,0,0
1555489142812.5,1.18,0,0,0,0,0
1555489142828.12,-21.49,0,0,0,0,0
1555489142843.75,-40.03,0,0,0,0,0
1555489142859.38,-46.85,0,0,0,0,0
1555489142875,-36.7,0,0,0,0,0
1555489142890.62,-9.86,0,0,0,0,0
1555489142906.25,27.37,0,0,0,0,0
1555489142921.88,64.92,0,0,0,0,0
1555489142937.5,92.99,0,0,0,0,0
1555489142953.12,105.83,0,0,0,0,0
1555489142968.75,103.29,0,0,0,0,0
1555489142984.38,89.83,0,0,0,0,0
1555489143000,71.32,0,0,0,0,0
1555489143015.62,52.34,0,0,0,0,0
1555489143031.25,34.73,0,0,0,0,0
1555489143046.88,18.18,0,0,0,0,0
1555489143062.5,1.8,0,0,0,0,0
1555489143078.12,-14.57,0,0,0,0,0
1555489143093.75,-30.37,0,0,0,0,0
1555489143109.38,-45.37,0,0,0,0,0
1555489143125,-60.51,0,0,0,0,0
1555489143140.62,-78.06,0,0,0,0,0
1555489143156.25,-100.23,0,0,0,0,0
1555489143171.88,-127.68,0,0,0,0,0
1555489143187.5,-158.39,0,0,0,0,0
1555489143203.12,-188.04,0,0,0,0,0
1555489143218.75,-211.43,0,0,0,0,0
1555489143234.38,-224.27,0,0,0,0,0
1555489143250,-224.75,0,0,0,0,0
1555489143265.62,-213.72,0,0,0,0,0
1555489143281.25,-193.95,0,0,0,0,0
1555489143296.88,-168.88,0,0,0,0,0
1555489143312.5,-141.38,0,0,0,0,0
1555489143328.12,-113.21,0,0,0,0,0
1555489143343.75,-85.15,0,0,0,0,0
1555489143359.38,-57.87,0,0,0,0,0
1555489143375,-32.33,0,0,0,0,0
1555489143390.62,-10.18,0,0,0,0,0
1555489143406.25,7.02,0,0,0,0,0
1555489143421.88,18.48,0,0,0,0,0
1555489143437.5,24.76,0,0,0,0,0
1555489143453.12,27.43,0,0,0,0,0
1555489143468.75,28.07,0,0,0,0,0
1555489143484.38,27.67,0,0,0,0,0
1555489143500,26.46,0,0,0,0,0
1555489143515.62,24.67,0,0,0,0,0
1555489143531.25,23.22,0,0,0,0,0
1555489143546.88,23.72,0,0,0,0,0
1555489143562.5,27.63,0,0,0,0,0
1555489143578.12,34.83,0,0,0,0,0
1555489143593.75,42.96,0,0,0,0,0
1555489143609.38,47.82,0,0,0,0,0
1555489143625,45.18,0,0,0,0,0
1555489143640.62,32.79,0,0,0,0,0
1555489143656.25,11.58,0,0,0,0,0
1555489143671.88,-14.87,0,0,0,0,0
1555489143687.5,-41.84,0,0,0,0,0
1555489143703.12,-65.37,0,0,0,0,0
1555489143718.75,-83.46,0,0,0,0,0
1555489143734.38,-95.74,0,0,0,0,0
1555489143750,-102.82,0,0,0,0,0
1555489143765.62,-105.41,0,0,0,0,0
1555489143781.25,-104.14,0,0,0,0,0
1555489143796.88,-99.78,0,0,0,0,0
1555489143812.5,-93.73,0,0,0,0,0
1555489143828.12,-87.96,0,0,0,0,0
1555489143843.75,-84.49,0,0,0,0,0
1555489143859.38,-84.81,0,0,0,0,0
1555489143875,-89.18,0,0,0,0,0
1555489143890.62,-96.6,0,0,0,0,0
1555489143906.25,-105.37,0,0,0,0,0
1555489143921.88,-114.02,0,0,0,0,0
1555489143937.5,-121.89,0,0,0,0,0
1555489143953.12,-129.46,0,0,0,0,0
1555489143968.75,-137.98,0,0,0,0,0
1555489143984.38,-148.56,0,0,0,0,0
1555489144000,-161.57,0,0,0,0,0
1555489144015.62,-176.14,0,0,0,0,0
1555489144031.25,-190.53,0,0,0,0,0
1555489144046.88,-202.87,0,0,0,0,0
1555489144062.5,-212.11,0,0,0,0,0
1555489144078.12,-218.46,0,0,0,0,0
1555489144093.75,-223.6,0,0,0,0,0
1555489144109.38,-230.31,0,0,0,0,0
1555489144125,-241.95,0,0,0,0,0
1555489144140.62,-261.85,0,0,0,0,0
1555489144156.25,-292.18,0,0,0,0,0
1555489144171.88,-332.68,0,0,0,0,0
1555489144187.5,-379.6,0,0,0,0,0
1555489144203.12,-425.7,0,0,0,0,0
1555489144218.75,-461.7,0,0,0,0,0
1555489144234.38,-479.27,0,0,0,0,0
1555489144250,-473.92,0,0,0,0,0
1555489144265.62,-446.61,0,0,0,0,0
1555489144281.25,-403.23,0,0,0,0,0
1555489144296.88,-351.84,0,0,0,0,0
1555489144312.5,-299.53,0,0,0,0,0
1555489144328.12,-250.21,0,0,0,0,0
1555489144343.75,-204.51,0,0,0,0,0
1555489144359.38,-161.15,0,0,0,0,0
1555489144375,-119.04,0,0,0,0,0
1555489144390.62,-78.21,0,0,0,0,0
1555489144406.25,-39.61,0,0,0,0,0
1555489144421.88,-4.11,0,0,0,0,0
1555489144437.5,28.49,0,0,0,0,0
1555489144453.12,59.63,0,0,0,0,0
1555489144468.75,91.07,0,0,0,0,0
1555489144484.38,124.21,0,0,0,0,0
1555489144500,159.58,0,0,0,0,0
1555489144515.62,196.87,0,0,0,0,0
1555489144531.25,235.22,0,0,0,0,0
1555489144546.88,273.43,0,0,0,0,0
1555489144562.5,309.85,0,0,0,0,0
1555489144578.12,342.19,0,0,0,0,0
1555489144593.75,367.66,0,0,0,0,0
1555489144609.38,383.4,0,0,0,0,0
1555489144625,387.48,0,0,0,0,0
1555489144640.62,379.45,0,0,0,0,0
1555489144656.25,360.64,0,0,0,0,0
1555489144671.88,333.82,0,0,0,0,0
1555489144687.5,302.6,0,0,0,0,0
1555489144703.12,270.61,0,0,0,0,0
1555489144718.75,241.17,0,0,0,0,0
1555489144734.38,216.9,0,0,0,0,0
1555489144750,199.52,0,0,0,0,0
1555489144765.62,189.61,0,0,0,0,0
1555489144781.25,186.33,0,0,0,0,0
1555489144796.88,187.47,0,0,0,0,0
1555489144812.5,189.93,0,0,0,0,0
1555489144828.12,190.66,0,0,0,0,0
1555489144843.75,187.44,0,0,0,0,0
1555489144859.38,179.52,0,0,0,0,0
1555489144875,167.49,0,0,0,0,0
1555489144890.62,152.88,0,0,0,0,0
1555489144906.25,137.32,0,0,0,0,0
1555489144921.88,121.93,0,0,0,0,0
1555489144937.5,107.11,0,0,0,0,0
1555489144953.12,92.81,0,0,0,0,0
1555489144968.75,78.87,0,0,0,0,0
1555489144984.38,65.43,0,0,0,0,0
1555489145000,53.07,0,0,0,0,0
1555489145015.62,42.51,0,0,0,0,0
1555489145031.25,34.32,0,0,0,0,0
1555489145046.88,28.35,0,0,0,0,0
1555489145062.5,23.78,0,0,0,0,0
1555489145078.12,19.33,0,0,0,0,0
1555489145093.75,13.75,0,0,0,0,0
1555489145109.38,6.28,0,0,0,0,0
1555489145125,-3.13,0,0,0,0,0
1555489145140.62,-13.9,0,0,0,0,0
1555489145156.25,-25.22,0,0,0,0,0
1555489145171.88,-36.36,0,0,0,0,0
1555489145187.5,-46.87,0,0,0,0,0
1555489145203.12,-56.69,0,0,0,0,0
1555489145218.75,-66.07,0,0,0,0,0
1555489145234.38,-75.46,0,0,0,0,0
1555489145250,-85.34,0,0,0,0,0
1555489145265.62,-95.8,0,0,0,0,0
1555489145281.25,-106.27,0,0,0,0,0
1555489145296.88,-115.32,0,0,0,0,0
1555489145312.5,-120.99,0,0,0,0,0
1555489145328.12,-121.28,0,0,0,0,0
1555489145343.75,-114.98,0,0,0,0,0
1555489145359.38,-102.15,0,0,0,0,0
1555489145375,-84.26,0,0,0,0,0
1555489145390.62,-63.68,0,0,0,0,0
1555489145406.25,-42.84,0,0,0,0,0
1555489145421.88,-23.62,0,0,0,0,0
1555489145437.5,-7.15,0,0,0,0,0
1555489145453.12,6.17,0,0,0,0,0
1555489145468.75,16.25,0,0,0,0,0
1555489145484.38,23.18,0,0,0,0,0
1555489145500,27.25,0,0,0,0,0
1555489145515.62,29.18,0,0,0,0,0
1555489145531.25,30.06,0,0,0,0,0
1555489145546.88,31.23,0,0,0,0,0
1555489145562.5,33.87,0,0,0,0,0
1555489145578.12,38.63,0,0,0,0,0
1555489145593.75,45.44,0,0,0,0,0
1555489145609.38,53.64,0,0,0,0,0
1555489145625,62.24,0,0,0,0,0
1555489145640.62,70.37,0,0,0,0,0
1555489145656.25,77.49,0,0,0,0,0
1555489145671.88,83.47,0,0,0,0,0
1555489145687.5,88.55,0,0,0,0,0
1555489145703.12,93.07,0,0,0,0,0
1555489145718.75,97.4,0,0,0,0,0
1555489145734.38,101.75,0,0,0,0,0
1555489145750,106.07,0,0,0,0,0
1555489145765.62,110.1,0,0,0,0,0
1555489145781.25,113.45,0,0,0,0,0
1555489145796.88,115.83,0,0,0,0,0
1555489145812.5,116.98,0,0,0,0,0
1555489145828.12,116.86,0,0,0,0,0
1555489145843.75,115.72,0,0,0,0,0
1555489145859.38,114.32,0,0,0,0,0
1555489145875,114.01,0,0,0,0,0
1555489145890.62,116.59,0,0,0,0,0
1555489145906.25,123.86,0,0,0,0,0
1555489145921.88,137.11,0,0,0,0,0
1555489145937.5,156.68,0,0,0,0,0
1555489145953.12,181.83,0,0,0,0,0
1555489145968.75,211.15,0,0,0,0,0
1555489145984.38,242.87,0,0,0,0,0
1555489146000,274.96,0,0,0,0,0
1555489146015.62,304.99,0,0,0,0,0
1555489146031.25,329.69,0,0,0,0,0
1555489146046.88,345.03,0,0,0,0,0
1555489146062.5,346.9,0,0,0,0,0
1555489146078.12,332.5,0,0,0,0,0
1555489146093.75,301.55,0,0,0,0,0
1555489146109.38,256.9,0,0,0,0,0
1555489146125,203.49,0,0,0,0,0
1555489146140.62,146.82,0,0,0,0,0
1555489146156.25,91.11,0,0,0,0,0
1555489146171.88,38.28,0,0,0,0,0
1555489146187.5,-11.96,0,0,0,0,0
1555489146203.12,-61.32,0,0,0,0,0
1555489146218.75,-112.01,0,0,0,0,0
1555489146234.38,-166.26,0,0,0,0,0
1555489146250,-225.82,0,0,0,0,0
1555489146265.62,-291.36,0,0,0,0,0
1555489146281.25,-361.27,0,0,0,0,0
1555489146296.88,-430.81,0,0,0,0,0
1555489146312.5,-492.43,0,0,0,0,0
1555489146328.12,-537.63,0,0,0,0,0
1555489146343.75,-560.01,0,0,0,0,0
1555489146359.38,-557.8,0,0,0,0,0
1555489146375,-534.77,0,0,0,0,0
1555489146390.62,-498.68,0,0,0,0,0
1555489146406.25,-458.36,0,0,0,0,0
1555489146421.88,-420.63,0,0,0,0,0
1555489146437.5,-388.8,0,0,0,0,0
1555489146453.12,-363.17,0,0,0,0,0
1555489146468.75,-342.6,0,0,0,0,0
1555489146484.38,-326.11,0,0,0,0,0
1555489146500,-313.36,0,0,0,0,0
1555489146515.62,-304.23,0,0,0,0,0
1555489146531.25,-297.9,0,0,0,0,0
1555489146546.88,-292.63,0,0,0,0,0
1555489146562.5,-286.14,0,0,0,0,0
1555489146578.12,-276.68,0,0,0,0,0
1555489146593.75,-263.72,0,0,0,0,0
1555489146609.38,-248.05,0,0,0,0,0
1555489146625,-231.52,0,0,0,0,0
1555489146640.62,-216.07,0,0,0,0,0
1555489146656.25,-203.06,0,0,0,0,0
1555489146671.88,-192.82,0,0,0,0,0
1555489146687.5,-184.93,0,0,0,0,0
1555489146703.12,-178.55,0,0,0,0,0
1555489146718.75,-173.09,0,0,0,0,0
1555489146734.38,-168.45,0,0,0,0,0
1555489146750,-165.09,0,0,0,0,0
1555489146765.62,-163.62,0,0,0,0,0
1555489146781.25,-164.42,0,0,0,0,0
1555489146796.88,-167.28,0,0,0,0,0
1555489146812.5,-171.26,0,0,0,0,0
1555489146828.12,-175.04,0,0,0,0,0
1555489146843.75,-177.28,0,0,0,0,0
1555489146859.38,-177.08,0,0,0,0,0
1555489146875,-174.19,0,0,0,0,0
1555489146890.62,-168.9,0,0,0,0,0
1555489146906.25,-161.93,0,0,0,0,0
1555489146921.88,-153.93,0,0,0,0,0
1555489146937.5,-145.4,0,0,0,0,0
1555489146953.12,-136.46,0,0,0,0,0
1555489146968.75,-127.02,0,0,0,0,0
1555489146984.38,-116.9,0,0,0,0,0
1555489147000,-106.13,0,0,0,0,0
1555489147015.62,-94.87,0,0,0,0,0
1555489147031.25,-83.48,0,0,0,0,0
1555489147046.88,-72.44,0,0,0,0,0
1555489147062.5,-62.11,0,0,0,0,0
1555489147078.12,-52.79,0,0,0,0,0
1555489147093.75,-44.62,0,0,0,0,0
1555489147109.38,-37.63,0,0,0,0,0
1555489147125,-31.77,0,0,0,0,0
1555489147140.62,-26.97,0,0,0,0,0
1555489147156.25,-23.12,0,0,0,0,0
1555489147171.88,-20.01,0,0,0,0,0
1555489147187.5,-17.41,0,0,0,0,0
1555489147203.12,-15.04,0,0,0,0,0
1555489147218.75,-12.79,0,0,0,0,0
1555489147234.38,-10.65,0,0,0,0,0
1555489147250,-8.88,0,0,0,0,0
1555489147265.62,-7.84,0,0,0,0,0
1555489147281.25,-7.89,0,0,0,0,0
1555489147296.88,-9.15,0,0,0,0,0
1555489147312.5,-11.32,0,0,0,0,0
1555489147328.12,-13.79,0,0,0,0,0
1555489147343.75,-15.68,0,0,0,0,0
1555489147359.38,-16.21,0,0,0,0,0
1555489147375,-14.9,0,0,0,0,0
1555489147390.62,-11.72,0,0,0,0,0
1555489147406.25,-7.04,0,0,0,0,0
1555489147421.88,-1.34,0,0,0,0,0
1555489147437.5,5.12,0,0,0,0,0
1555489147453.12,12.51,0,0,0,0,0
1555489147468.75,21.38,0,0,0,0,0
1555489147484.38,32.48,0,0,0,0,0
1555489147500,46.18,0,0,0,0,0
1555489147515.62,62.19,0,0,0,0,0
1555489147531.25,79.45,0,0,0,0,0
1555489147546.88,96.36,0,0,0,0,0
1555489147562.5,111.49,0,0,0,0,0
1555489147578.12,124.2,0,0,0,0,0
1555489147593.75,135.03,0,0,0,0,0
1555489147609.38,145.56,0,0,0,0,0
1555489147625,157.88,0,0,0,0,0
1555489147640.62,173.58,0,0,0,0,0
1555489147656.25,193.14,0,0,0,0,0
1555489147671.88,215.66,0,0,0,0,0
1555489147687.5,239.37,0,0,0,0,0
1555489147703.12,262.49,0,0,0,0,0
1555489147718.75,283.97,0,0,0,0,0
1555489147734.38,303.95,0,0,0,0,0
1555489147750,323.5,0,0,0,0,0
1555489147765.62,344.12,0,0,0,0,0
1555489147781.25,367.37,0,0,0,0,0
1555489147796.88,394.62,0,0,0,0,0
1555489147812.5,426.89,0,0,0,0,0
1555489147828.12,463.91,0,0,0,0,0
1555489147843.75,503,0,0,0,0,0
1555489147859.38,538.24,0,0,0,0,0
1555489147875,561.23,0,0,0,0,0
1555489147890.62,563.73,0,0,0,0,0
1555489147906.25,541.04,0,0,0,0,0
1555489147921.88,494.59,0,0,0,0,0
1555489147937.5,431.9,0,0,0,0,0
1555489147953.12,364.04,0,0,0,0,0
1555489147968.75,301.5,0,0,0,0,0
1555489147984.38,250.95,0,0,0,0,0
1555489148000,214.26,0,0,0,0,0
1555489148015.62,189.79,0,0,0,0,0
1555489148031.25,174.72,0,0,0,0,0
1555489148046.88,166.7,0,0,0,0,0
1555489148062.5,164.23,0,0,0,0,0
1555489148078.12,165.82,0,0,0,0,0
1555489148093.75,169.11,0,0,0,0,0
1555489148109.38,170.73,0,0,0,0,0
1555489148125,166.98,0,0,0,0,0
1555489148140.62,154.83,0,0,0,0,0
1555489148156.25,132.9,0,0,0,0,0
1555489148171.88,101.87,0,0,0,0,0
1555489148187.5,64.7,0,0,0,0,0
1555489148203.12,25.95,0,0,0,0,0
1555489148218.75,-9.47,0,0,0,0,0
1555489148234.38,-38.15,0,0,0,0,0
1555489148250,-59.44,0,0,0,0,0
1555489148265.62,-75.7,0,0,0,0,0
1555489148281.25,-91.05,0,0,0,0,0
1555489148296.88,-109.27,0,0,0,0,0
1555489148312.5,-132.11,0,0,0,0,0
1555489148328.12,-159.2,0,0,0,0,0
1555489148343.75,-189.42,0,0,0,0,0
1555489148359.38,-222.61,0,0,0,0,0
1555489148375,-260,0,0,0,0,0
1555489148390.62,-302.58,0,0,0,0,0
1555489148406.25,-348.76,0,0,0,0,0
1555489148421.88,-392.72,0,0,0,0,0
1555489148437.5,-425.29,0,0,0,0,0
1555489148453.12,-437.29,0,0,0,0,0
1555489148468.75,-423.57,0,0,0,0,0
1555489148484.38,-385.49,0,0,0,0,0
1555489148500,-330.43,0,0,0,0,0
1555489148515.62,-268.56,0,0,0,0,0
1555489148531.25,-208.75,0,0,0,0,0
1555489148546.88,-155.78,0,0,0,0,0
1555489148562.5,-109.9,0,0,0,0,0
1555489148578.12,-68.5,0,0,0,0,0
1555489148593.75,-28.5,0,0,0,0,0
1555489148609.38,12.17,0,0,0,0,0
1555489148625,54.29,0,0,0,0,0
1555489148640.62,98,0,0,0,0,0
1555489148656.25,143.21,0,0,0,0,0
1555489148671.88,189.25,0,0,0,0,0
1555489148687.5,233.9,0,0,0,0,0
1555489148703.12,272.68,0,0,0,0,0
1555489148718.75,299.38,0,0,0,0,0
1555489148734.38,307.91,0,0,0,0,0
1555489148750,294.61,0,0,0,0,0
1555489148765.62,260.15,0,0,0,0,0
1555489148781.25,209.64,0,0,0,0,0
1555489148796.88,150.8,0,0,0,0,0
1555489148812.5,91.16,0,0,0,0,0
1555489148828.12,35.66,0,0,0,0,0
1555489148843.75,-14.06,0,0,0,0,0
1555489148859.38,-58.59,0,0,0,0,0
1555489148875,-98.7,0,0,0,0,0
1555489148890.62,-133.62,0,0,0,0,0
1555489148906.25,-160.75,0,0,0,0,0
1555489148921.88,-177.07,0,0,0,0,0
1555489148937.5,-180.97,0,0,0,0,0
1555489148953.12,-173.55,0,0,0,0,0
1555489148968.75,-158.51,0,0,0,0,0
1555489148984.38,-140.51,0,0,0,0,0
1555489149000,-123.15,0,0,0,0,0
1555489149015.62,-107.66,0,0,0,0,0
1555489149031.25,-93.13,0,0,0,0,0
1555489149046.88,-77.94,0,0,0,0,0
1555489149062.5,-61.82,0,0,0,0,0
1555489149078.12,-46.66,0,0,0,0,0
1555489149093.75,-35.53,0,0,0,0,0
1555489149109.38,-30.93,0,0,0,0,0
1555489149125,-32.62,0,0,0,0,0
1555489149140.62,-37.21,0,0,0,0,0
1555489149156.25,-39.34,0,0,0,0,0
1555489149171.88,-34.1,0,0,0,0,0
1555489149187.5,-18.94,0,0,0,0,0
1555489149203.12,5.4,0,0,0,0,0
1555489149218.75,35.36,0,0,0,0,0
1555489149234.38,66.12,0,0,0,0,0
1555489149250,92.92,0,0,0,0,0
1555489149265.62,112.12,0,0,0,0,0
1555489149281.25,121.79,0,0,0,0,0
1555489149296.88,122.16,0,0,0,0,0
1555489149312.5,115.55,0,0,0,0,0
1555489149328.12,106.02,0,0,0,0,0
1555489149343.75,98.31,0,0,0,0,0
1555489149359.38,96.52,0,0,0,0,0
1555489149375,103.12,0,0,0,0,0
1555489149390.62,118.31,0,0,0,0,0
1555489149406.25,140.39,0,0,0,0,0
1555489149421.88,166.27,0,0,0,0,0
1555489149437.5,192.22,0,0,0,0,0
1555489149453.12,214.41,0,0,0,0,0
1555489149468.75,229.56,0,0,0,0,0
1555489149484.38,235.52,0,0,0,0,0
1555489149500,231.77,0,0,0,0,0
1555489149515.62,219.48,0,0,0,0,0
1555489149531.25,200.84,0,0,0,0,0
1555489149546.88,178.21,0,0,0,0,0
1555489149562.5,153.2,0,0,0,0,0
1555489149578.12,126.6,0,0,0,0,0
1555489149593.75,99.25,0,0,0,0,0
1555489149609.38,72.98,0,0,0,0,0
1555489149625,51.12,0,0,0,0,0
1555489149640.62,37.92,0,0,0,0,0
1555489149656.25,36.95,0,0,0,0,0
1555489149671.88,49.28,0,0,0,0,0
1555489149687.5,72.52,0,0,0,0,0
1555489149703.12,101.23,0,0,0,0,0
1555489149718.75,128.57,0,0,0,0,0
1555489149734.38,148.46,0,0,0,0,0
1555489149750,157.14,0,0,0,0,0
1555489149765.62,153.73,0,0,0,0,0
1555489149781.25,139.24,0,0,0,0,0
1555489149796.88,115.32,0,0,0,0,0
1555489149812.5,83.32,0,0,0,0,0
1555489149828.12,44.21,0,0,0,0,0
1555489149843.75,-1.06,0,0,0,0,0
1555489149859.38,-50.78,0,0,0,0,0
1555489149875,-101.99,0,0,0,0,0
1555489149890.62,-150.66,0,0,0,0,0
1555489149906.25,-192.43,0,0,0,0,0
1555489149921.88,-224.07,0,0,0,0,0
1555489149937.5,-244.72,0,0,0,0,0
1555489149953.12,-257.01,0,0,0,0,0
1555489149968.75,-266.4,0,0,0,0,0
1555489149984.38,-278.83,0,0,0,0,0
1555489150000,-297.32,0,0,0,0,0
1555489150015.62,-319.18,0,0,0,0,0
1555489150031.25,-336.36,0,0,0,0,0
1555489150046.88,-339.09,0,0,0,0,0
1555489150062.5,-321.33,0,0,0,0,0
1555489150078.12,-284.53,0,0,0,0,0
1555489150093.75,-237.42,0,0,0,0,0
1555489150109.38,-191.29,0,0,0,0,0
1555489150125,-153.84,0,0,0,0,0
1555489150140.62,-125.36,0,0,0,0,0
1555489150156.25,-99.22,0,0,0,0,0
1555489150171.88,-66.66,0,0,0,0,0
1555489150187.5,-22.41,0,0,0,0,0
1555489150203.12,32.09,0,0,0,0,0
1555489150218.75,89.61,0,0,0,0,0
1555489150234.38,141.14,0,0,0,0,0
1555489150250,180.4,0,0,0,0,0
1555489150265.62,206.04,0,0,0,0,0
1555489150281.25,220.78,0,0,0,0,0
1555489150296.88,228.84,0,0,0,0,0
1555489150312.5,233.49,0,0,0,0,0
1555489150328.12,236.2,0,0,0,0,0
1555489150343.75,237.34,0,0,0,0,0
1555489150359.38,237.09,0,0,0,0,0
1555489150375,236.05,0,0,0,0,0
1555489150390.62,235.02,0,0,0,0,0
1555489150406.25,234.51,0,0,0,0,0
1555489150421.88,234.36,0,0,0,0,0
1555489150437.5,234.36,0,0,0,0,0
1555489150453.12,234.77,0,0,0,0,0
1555489150468.75,236.83,0,0,0,0,0
1555489150484.38,242.25,0,0,0,0,0
1555489150500,252.29,0,0,0,0,0
1555489150515.62,266.42,0,0,0,0,0
1555489150531.25,281.76,0,0,0,0,0
1555489150546.88,293.69,0,0,0,0,0
1555489150562.5,297.34,0,0,0,0,0
1555489150578.12,289.47,0,0,0,0,0
1555489150593.75,269.4,0,0,0,0,0
1555489150609.38,239.14,0,0,0,0,0
1555489150625,202.2,0,0,0,0,0
1555489150640.62,162.42,0,0,0,0,0
1555489150656.25,122.69,0,0,0,0,0
1555489150671.88,84.29,0,0,0,0,0
1555489150687.5,46.96,0,0,0,0,0
1555489150703.12,9.51,0,0,0,0,0
1555489150718.75,-29.49,0,0,0,0,0
1555489150734.38,-70.99,0,0,0,0,0
1555489150750,-114.63,0,0,0,0,0
1555489150765.62,-158.5,0,0,0,0,0
1555489150781.25,-198.78,0,0,0,0,0
1555489150796.88,-230.54,0,0,0,0,0
1555489150812.5,-249.32,0,0,0,0,0
1555489150828.12,-253.35,0,0,0,0,0
1555489150843.75,-244.98,0,0,0,0,0
1555489150859.38,-230.69,0,0,0,0,0
1555489150875,-219.03,0,0,0,0,0
1555489150890.62,-216.86,0,0,0,0,0
1555489150906.25,-227.19,0,0,0,0,0
1555489150921.88,-247.19,0,0,0,0,0
1555489150937.5,-269.59,0,0,0,0,0
1555489150953.12,-285.89,0,0,0,0,0
1555489150968.75,-289.46,0,0,0,0,0
1555489150984.38,-277.6,0,0,0,0,0
1555489151000,-251.64,0,0,0,0,0
1555489151015.62,-215.43,0,0,0,0,0
1555489151031.25,-172.55,0,0,0,0,0
1555489151046.88,-127.35,0,0,0,0,0
1555489151062.5,-82.15,0,0,0,0,0
1555489151078.12,-38.46,0,0,0,0,0
1555489151093.75,2.31,0,0,0,0,0
1555489151109.38,38.06,0,0,0,0,0
1555489151125,65.98,0,0,0,0,0
1555489151140.62,83.06,0,0,0,0,0
1555489151156.25,86.91,0,0,0,0,0
1555489151171.88,78.5,0,0,0,0,0
1555489151187.5,57.85,0,0,0,0,0
1555489151203.12,29.46,0,0,0,0,0
1555489151218.75,-0.08,0,0,0,0,0
1555489151234.38,-23.87,0,0,0,0,0
1555489151250,-36.9,0,0,0,0,0
1555489151265.62,-38.09,0,0,0,0,0
1555489151281.25,-30.91,0,0,0,0,0
1555489151296.88,-22.1,0,0,0,0,0
1555489151312.5,-16.33,0,0,0,0,0
1555489151328.12,-21.73,0,0,0,0,0
1555489151343.75,-40.28,0,0,0,0,0
1555489151359.38,-70.57,0,0,0,0,0
1555489151375,-108.75,0,0,0,0,0
1555489151390.62,-149.57,0,0,0,0,0
1555489151406.25,-187.01,0,0,0,0,0
1555489151421.88,-214.54,0,0,0,0,0
1555489151437.5,-226.01,0,0,0,0,0
1555489151453.12,-213.62,0,0,0,0,0
1555489151468.75,-180.08,0,0,0,0,0
1555489151484.38,-128.85,0,0,0,0,0
1555489151500,-66.72,0,0,0,0,0
1555489151515.62,-1.19,0,0,0,0,0
1555489151531.25,62.54,0,0,0,0,0
1555489151546.88,122.99,0,0,0,0,0
1555489151562.5,181.43,0,0,0,0,0
1555489151578.12,217.03,0,0,0,0,0
1555489151593.75,254.08,0,0,0,0,0
1555489151609.38,283.35,0,0,0,0,0
1555489151625,297.74,0,0,0,0,0
1555489151640.62,292.01,0,0,0,0,0
1555489151656.25,265.75,0,0,0,0,0
1555489151671.88,223.99,0,0,0,0,0
1555489151687.5,175.1,0,0,0,0,0
1555489151703.12,127.45,0,0,0,0,0
1555489151718.75,86.84,0,0,0,0,0
1555489151734.38,59.29,0,0,0,0,0
1555489151750,41.78,0,0,0,0,0
1555489151765.62,34.16,0,0,0,0,0
1555489151781.25,36.35,0,0,0,0,0
1555489151796.88,47.64,0,0,0,0,0
1555489151812.5,65.67,0,0,0,0,0
1555489151828.12,86.24,0,0,0,0,0
1555489151843.75,104.55,0,0,0,0,0
1555489151859.38,117.1,0,0,0,0,0
1555489151875,125.71,0,0,0,0,0
1555489151890.62,129.3,0,0,0,0,0
1555489151906.25,130.27,0,0,0,0,0
1555489151921.88,130.08,0,0,0,0,0
1555489151937.5,128.07,0,0,0,0,0
1555489151953.12,122.08,0,0,0,0,0
1555489151968.75,109.87,0,0,0,0,0
1555489151984.38,90.62,0,0,0,0,0
1555489152000,65.59,0,0,0,0,0
1555489152015.62,39.35,0,0,0,0,0
1555489152031.25,13.97,0,0,0,0,0
1555489152046.88,-7.14,0,0,0,0,0
1555489152062.5,-21.61,0,0,0,0,0
1555489152078.12,-28.65,0,0,0,0,0
1555489152093.75,-28.96,0,0,0,0,0
1555489152109.38,-24.07,0,0,0,0,0
1555489152125,-15.57,0,0,0,0,0
1555489152140.62,-4.46,0,0,0,0,0
1555489152156.25,9.55,0,0,0,0,0
1555489152171.88,25.41,0,0,0,0,0
1555489152187.5,42.38,0,0,0,0,0
1555489152203.12,58.89,0,0,0,0,0
1555489152218.75,72.62,0,0,0,0,0
1555489152234.38,81.47,0,0,0,0,0
1555489152250,84.75,0,0,0,0,0
1555489152265.62,83.9,0,0,0,0,0
1555489152281.25,82.26,0,0,0,0,0
1555489152296.88,84.17,0,0,0,0,0
1555489152312.5,92.45,0,0,0,0,0
1555489152328.12,107.96,0,0,0,0,0
1555489152343.75,128.84,0,0,0,0,0
1555489152359.38,151.01,0,0,0,0,0
1555489152375,169.56,0,0,0,0,0
1555489152390.62,180.13,0,0,0,0,0
1555489152406.25,180.07,0,0,0,0,0
1555489152421.88,168.72,0,0,0,0,0
1555489152437.5,147.04,0,0,0,0,0
1555489152453.12,116.91,0,0,0,0,0
1555489152468.75,80.35,0,0,0,0,0
1555489152484.38,39.05,0,0,0,0,0
1555489152500,-5.69,0,0,0,0,0
1555489152515.62,-52.81,0,0,0,0,0
1555489152531.25,-101.31,0,0,0,0,0
1555489152546.88,-150.12,0,0,0,0,0
1555489152562.5,-198.31,0,0,0,0,0
1555489152578.12,-245.18,0,0,0,0,0
1555489152593.75,-290.17,0,0,0,0,0
1555489152609.38,-332.72,0,0,0,0,0
1555489152625,-371.88,0,0,0,0,0
1555489152640.62,-406.21,0,0,0,0,0
1555489152656.25,-434.13,0,0,0,0,0
1555489152671.88,-454.77,0,0,0,0,0
1555489152687.5,-468.8,0,0,0,0,0
1555489152703.12,-478.56,0,0,0,0,0
1555489152718.75,-487.28,0,0,0,0,0
1555489152734.38,-497.49,0,0,0,0,0
1555489152750,-509.42,0,0,0,0,0
1555489152765.62,-520.15,0,0,0,0,0
1555489152781.25,-524.33,0,0,0,0,0
1555489152796.88,-515.98,0,0,0,0,0
1555489152812.5,-490.85,0,0,0,0,0
1555489152828.12,-448.24,0,0,0,0,0
1555489152843.75,-391.27,0,0,0,0,0
1555489152859.38,-326.11,0,0,0,0,0
1555489152875,-259.83,0,0,0,0,0
1555489152890.62,-198.57,0,0,0,0,0
1555489152906.25,-146.19,0,0,0,0,0
1555489152921.88,-103.91,0,0,0,0,0
1555489152937.5,-70.78,0,0,0,0,0
1555489152953.12,-44.55,0,0,0,0,0
1555489152968.75,-22.74,0,0,0,0,0
1555489152984.38,-3.19,0,0,0,0,0
1555489153000,15.31,0,0,0,0,0
1555489153015.62,33.01,0,0,0,0,0
1555489153031.25,49.39,0,0,0,0,0
1555489153046.88,63.61,0,0,0,0,0
1555489153062.5,75.25,0,0,0,0,0
1555489153078.12,84.87,0,0,0,0,0
1555489153093.75,94.32,0,0,0,0,0
1555489153109.38,106.35,0,0,0,0,0
1555489153125,123.8,0,0,0,0,0
1555489153140.62,147.96,0,0,0,0,0
1555489153156.25,177.46,0,0,0,0,0
1555489153171.88,208.1,0,0,0,0,0
1555489153187.5,234.15,0,0,0,0,0
1555489153203.12,250.86,0,0,0,0,0
1555489153218.75,256.72,0,0,0,0,0
1555489153234.38,254.34,0,0,0,0,0
1555489153250,249.06,0,0,0,0,0
1555489153265.62,246.35,0,0,0,0,0
1555489153281.25,248.98,0,0,0,0,0
1555489153296.88,256.08,0,0,0,0,0
1555489153312.5,264.27,0,0,0,0,0
1555489153328.12,270.02,0,0,0,0,0
1555489153343.75,271.8,0,0,0,0,0
1555489153359.38,270.2,0,0,0,0,0
1555489153375,266.52,0,0,0,0,0
1555489153390.62,260.97,0,0,0,0,0
1555489153406.25,251.68,0,0,0,0,0
1555489153421.88,235.63,0,0,0,0,0
1555489153437.5,210.33,0,0,0,0,0
1555489153453.12,175.85,0,0,0,0,0
1555489153468.75,134.71,0,0,0,0,0
1555489153484.38,90.85,0,0,0,0,0
1555489153500,47.63,0,0,0,0,0
1555489153515.62,6.29,0,0,0,0,0
1555489153531.25,-34.38,0,0,0,0,0
1555489153546.88,-77.36,0,0,0,0,0
1555489153562.5,-125.91,0,0,0,0,0
1555489153578.12,-181.5,0,0,0,0,0
1555489153593.75,-242.19,0,0,0,0,0
1555489153609.38,-302.06,0,0,0,0,0
1555489153625,-352.28,0,0,0,0,0
1555489153640.62,-383.81,0,0,0,0,0
1555489153656.25,-390.76,0,0,0,0,0
1555489153671.88,-372.78,0,0,0,0,0
1555489153687.5,-335.26,0,0,0,0,0
1555489153703.12,-286.85,0,0,0,0,0
1555489153718.75,-235.85,0,0,0,0,0
1555489153734.38,-187.21,0,0,0,0,0
1555489153750,-142.1,0,0,0,0,0
1555489153765.62,-99.65,0,0,0,0,0
1555489153781.25,-59.54,0,0,0,0,0
1555489153796.88,-23.73,0,0,0,0,0
1555489153812.5,4.29,0,0,0,0,0
1555489153828.12,21.65,0,0,0,0,0
1555489153843.75,28.6,0,0,0,0,0
1555489153859.38,29.12,0,0,0,0,0
1555489153875,29.2,0,0,0,0,0
1555489153890.62,33.86,0,0,0,0,0
1555489153906.25,44.75,0,0,0,0,0
1555489153921.88,59.62,0,0,0,0,0
1555489153937.5,73.63,0,0,0,0,0
1555489153953.12,82.03,0,0,0,0,0
1555489153968.75,82.37,0,0,0,0,0
1555489153984.38,75.34,0,0,0,0,0
1555489154000,64.16,0,0,0,0,0
1555489154015.62,52.86,0,0,0,0,0
1555489154031.25,44.57,0,0,0,0,0
1555489154046.88,40.49,0,0,0,0,0
1555489154062.5,39.59,0,0,0,0,0
1555489154078.12,39.26,0,0,0,0,0
1555489154093.75,36.45,0,0,0,0,0
1555489154109.38,29.09,0,0,0,0,0
1555489154125,16.88,0,0,0,0,0
1555489154140.62,1.35,0,0,0,0,0
1555489154156.25,-14.95,0,0,0,0,0
1555489154171.88,-29.57,0,0,0,0,0
1555489154187.5,-40.95,0,0,0,0,0
1555489154203.12,-48.43,0,0,0,0,0
1555489154218.75,-51.52,0,0,0,0,0
1555489154234.38,-49.23,0,0,0,0,0
1555489154250,-39.96,0,0,0,0,0
1555489154265.62,-22.46,0,0,0,0,0
1555489154281.25,2.89,0,0,0,0,0
1555489154296.88,33.4,0,0,0,0,0
1555489154312.5,64.8,0,0,0,0,0
1555489154328.12,92.99,0,0,0,0,0
1555489154343.75,115.77,0,0,0,0,0
1555489154359.38,133.59,0,0,0,0,0
1555489154375,148.46,0,0,0,0,0
1555489154390.62,161.82,0,0,0,0,0
1555489154406.25,172.79,0,0,0,0,0
1555489154421.88,177.66,0,0,0,0,0
1555489154437.5,171.54,0,0,0,0,0
1555489154453.12,150.53,0,0,0,0,0
1555489154468.75,114.01,0,0,0,0,0
1555489154484.38,65.56,0,0,0,0,0
1555489154500,11.68,0,0,0,0,0
1555489154515.62,-40.73,0,0,0,0,0
1555489154531.25,-86.99,0,0,0,0,0
1555489154546.88,-125.86,0,0,0,0,0
1555489154562.5,-158.66,0,0,0,0,0
1555489154578.12,-186.88,0,0,0,0,0
1555489154593.75,-209.99,0,0,0,0,0
1555489154609.38,-224.56,0,0,0,0,0
1555489154625,-225.68,0,0,0,0,0
1555489154640.62,-209.92,0,0,0,0,0
1555489154656.25,-177.62,0,0,0,0,0
1555489154671.88,-133.82,0,0,0,0,0
1555489154687.5,-86.79,0,0,0,0,0
1555489154703.12,-45.14,0,0,0,0,0
1555489154718.75,-14.87,0,0,0,0,0
1555489154734.38,2.1,0,0,0,0,0
1555489154750,7.81,0,0,0,0,0
1555489154765.62,6.94,0,0,0,0,0
1555489154781.25,5.04,0,0,0,0,0
1555489154796.88,7.12,0,0,0,0,0
1555489154812.5,16.52,0,0,0,0,0
1555489154828.12,34.19,0,0,0,0,0
1555489154843.75,58.16,0,0,0,0,0
1555489154859.38,84.18,0,0,0,0,0
1555489154875,107.02,0,0,0,0,0
1555489154890.62,122.55,0,0,0,0,0
1555489154906.25,129.65,0,0,0,0,0
1555489154921.88,130.5,0,0,0,0,0
1555489154937.5,129.55,0,0,0,0,0
1555489154953.12,130.77,0,0,0,0,0
1555489154968.75,135.49,0,0,0,0,0
1555489154984.38,141.58,0,0,0,0,0
1555489155000,144.63,0,0,0,0,0
1555489155015.62,140.45,0,0,0,0,0
1555489155031.25,126.99,0,0,0,0,0
1555489155046.88,105.16,0,0,0,0,0
1555489155062.5,77.99,0,0,0,0,0
1555489155078.12,49.39,0,0,0,0,0
1555489155093.75,23.12,0,0,0,0,0
1555489155109.38,2.56,0,0,0,0,0
1555489155125,-9.44,0,0,0,0,0
1555489155140.62,-11.15,0,0,0,0,0
1555489155156.25,-2.94,0,0,0,0,0
1555489155171.88,12.02,0,0,0,0,0
1555489155187.5,28.24,0,0,0,0,0
1555489155203.12,39.86,0,0,0,0,0
1555489155218.75,43.14,0,0,0,0,0
1555489155234.38,37.91,0,0,0,0,0
1555489155250,27.3,0,0,0,0,0
1555489155265.62,15.53,0,0,0,0,0
1555489155281.25,5.52,0,0,0,0,0
1555489155296.88,-1.96,0,0,0,0,0
1555489155312.5,-7.42,0,0,0,0,0
1555489155328.12,-10.95,0,0,0,0,0
1555489155343.75,-11.21,0,0,0,0,0
1555489155359.38,-5.87,0,0,0,0,0
1555489155375,6.56,0,0,0,0,0
1555489155390.62,25.1,0,0,0,0,0
1555489155406.25,45.95,0,0,0,0,0
1555489155421.88,63.78,0,0,0,0,0
1555489155437.5,73.94,0,0,0,0,0
1555489155453.12,73.97,0,0,0,0,0
1555489155468.75,64.39,0,0,0,0,0
1555489155484.38,47.97,0,0,0,0,0
1555489155500,28.53,0,0,0,0,0
1555489155515.62,9.58,0,0,0,0,0
1555489155531.25,-6.57,0,0,0,0,0
1555489155546.88,-19.12,0,0,0,0,0
1555489155562.5,-28.08,0,0,0,0,0
1555489155578.12,-33.61,0,0,0,0,0
1555489155593.75,-35.22,0,0,0,0,0
1555489155609.38,-31.71,0,0,0,0,0
1555489155625,-22.13,0,0,0,0,0
1555489155640.62,-7.24,0,0,0,0,0
1555489155656.25,9.65,0,0,0,0,0
1555489155671.88,23.2,0,0,0,0,0
1555489155687.5,27.98,0,0,0,0,0
1555489155703.12,21.53,0,0,0,0,0
1555489155718.75,5.85,0,0,0,0,0
1555489155734.38,-13.17,0,0,0,0,0
1555489155750,-28.34,0,0,0,0,0
1555489155765.62,-34.61,0,0,0,0,0
1555489155781.25,-31.34,0,0,0,0,0
1555489155796.88,-22.26,0,0,0,0,0
1555489155812.5,-13.23,0,0,0,0,0
1555489155828.12,-9.4,0,0,0,0,0
1555489155843.75,-12.82,0,0,0,0,0
1555489155859.38,-22.17,0,0,0,0,0
1555489155875,-33.83,0,0,0,0,0
1555489155890.62,-43.95,0,0,0,0,0
1555489155906.25,-50.38,0,0,0,0,0
1555489155921.88,-53.28,0,0,0,0,0
1555489155937.5,-54.55,0,0,0,0,0
1555489155953.12,-56.39,0,0,0,0,0
1555489155968.75,-59.88,0,0,0,0,0
1555489155984.38,-64.79,0,0,0,0,0
1555489156000,-70.14,0,0,0,0,0
1555489156015.62,-75.18,0,0,0,0,0
1555489156031.25,-79.82,0,0,0,0,0
1555489156046.88,-84.29,0,0,0,0,0
1555489156062.5,-87.96,0,0,0,0,0
1555489156078.12,-88.71,0,0,0,0,0
1555489156093.75,-83.27,0,0,0,0,0
1555489156109.38,-69.12,0,0,0,0,0
1555489156125,-46.22,0,0,0,0,0
1555489156140.62,-17.86,0,0,0,0,0
1555489156156.25,10.51,0,0,0,0,0
1555489156171.88,33.67,0,0,0,0,0
1555489156187.5,48.8,0,0,0,0,0
1555489156203.12,56.58,0,0,0,0,0
1555489156218.75,59.96,0,0,0,0,0
1555489156234.38,62.1,0,0,0,0,0
1555489156250,64.37,0,0,0,0,0
1555489156265.62,65.96,0,0,0,0,0
1555489156281.25,64.99,0,0,0,0,0
1555489156296.88,60.17,0,0,0,0,0
1555489156312.5,51.71,0,0,0,0,0
1555489156328.12,40.8,0,0,0,0,0
1555489156343.75,28.71,0,0,0,0,0
1555489156359.38,15.49,0,0,0,0,0
1555489156375,0.07,0,0,0,0,0
1555489156390.62,-19.07,0,0,0,0,0
1555489156406.25,-42.38,0,0,0,0,0
1555489156421.88,-68.36,0,0,0,0,0
1555489156437.5,-93.72,0,0,0,0,0
1555489156453.12,-114.49,0,0,0,0,0
1555489156468.75,-127.3,0,0,0,0,0
1555489156484.38,-130.42,0,0,0,0,0
1555489156500,-124.11,0,0,0,0,0
1555489156515.62,-109.99,0,0,0,0,0
1555489156531.25,-90.36,0,0,0,0,0
1555489156546.88,-67.22,0,0,0,0,0
1555489156562.5,-41.91,0,0,0,0,0
1555489156578.12,-15.04,0,0,0,0,0
1555489156593.75,12.97,0,0,0,0,0
1555489156609.38,41.42,0,0,0,0,0
1555489156625,68.97,0,0,0,0,0
1555489156640.62,93.3,0,0,0,0,0
1555489156656.25,111.8,0,0,0,0,0
1555489156671.88,122.21,0,0,0,0,0
1555489156687.5,123.41,0,0,0,0,0
1555489156703.12,115.93,0,0,0,0,0
1555489156718.75,101.74,0,0,0,0,0
1555489156734.38,83.46,0,0,0,0,0
1555489156750,64.59,0,0,0,0,0
1555489156765.62,49.45,0,0,0,0,0
1555489156781.25,42.08,0,0,0,0,0
1555489156796.88,44.56,0,0,0,0,0
1555489156812.5,55.37,0,0,0,0,0
1555489156828.12,68.95,0,0,0,0,0
1555489156843.75,77.39,0,0,0,0,0
1555489156859.38,73.2,0,0,0,0,0
1555489156875,52.13,0,0,0,0,0
1555489156890.62,16.05,0,0,0,0,0
1555489156906.25,-27.38,0,0,0,0,0
1555489156921.88,-67.92,0,0,0,0,0
1555489156937.5,-96.93,0,0,0,0,0
1555489156953.12,-110.53,0,0,0,0,0
1555489156968.75,-109.85,0,0,0,0,0
1555489156984.38,-99.05,0,0,0,0,0
1555489157000,-84.05,0,0,0,0,0
1555489157015.62,-71.61,0,0,0,0,0
1555489157031.25,-67.44,0,0,0,0,0
1555489157046.88,-74.81,0,0,0,0,0
1555489157062.5,-93.63,0,0,0,0,0
1555489157078.12,-119.9,0,0,0,0,0
1555489157093.75,-146.75,0,0,0,0,0
1555489157109.38,-166.56,0,0,0,0,0
1555489157125,-173.51,0,0,0,0,0
1555489157140.62,-160.69,0,0,0,0,0
1555489157156.25,-128.64,0,0,0,0,0
1555489157171.88,-84.48,0,0,0,0,0
1555489157187.5,-38.37,0,0,0,0,0
1555489157203.12,1.67,0,0,0,0,0
1555489157218.75,33.68,0,0,0,0,0
1555489157234.38,60.76,0,0,0,0,0
1555489157250,84.34,0,0,0,0,0
1555489157265.62,107.48,0,0,0,0,0
1555489157281.25,130.2,0,0,0,0,0
1555489157296.88,148.81,0,0,0,0,0
1555489157312.5,158.64,0,0,0,0,0
1555489157328.12,155.81,0,0,0,0,0
1555489157343.75,138.09,0,0,0,0,0
1555489157359.38,106.6,0,0,0,0,0
1555489157375,64.13,0,0,0,0,0
1555489157390.62,15.68,0,0,0,0,0
1555489157406.25,-31.95,0,0,0,0,0
1555489157421.88,-72.55,0,0,0,0,0
1555489157437.5,-102.54,0,0,0,0,0
1555489157453.12,-120.98,0,0,0,0,0
1555489157468.75,-129.13,0,0,0,0,0
1555489157484.38,-129.55,0,0,0,0,0
1555489157500,-125.22,0,0,0,0,0
1555489157515.62,-119.49,0,0,0,0,0
1555489157531.25,-115.68,0,0,0,0,0
1555489157546.88,-116.75,0,0,0,0,0
1555489157562.5,-125.29,0,0,0,0,0
1555489157578.12,-142.55,0,0,0,0,0
1555489157593.75,-166.55,0,0,0,0,0
1555489157609.38,-191.75,0,0,0,0,0
1555489157625,-210.4,0,0,0,0,0
1555489157640.62,-215.19,0,0,0,0,0
1555489157656.25,-202.35,0,0,0,0,0
1555489157671.88,-172.68,0,0,0,0,0
1555489157687.5,-131.1,0,0,0,0,0
1555489157703.12,-85.29,0,0,0,0,0
1555489157718.75,-43.69,0,0,0,0,0
1555489157734.38,-12.88,0,0,0,0,0
1555489157750,3.58,0,0,0,0,0
1555489157765.62,5.84,0,0,0,0,0
1555489157781.25,-2.2,0,0,0,0,0
1555489157796.88,-13.75,0,0,0,0,0
1555489157812.5,-20.6,0,0,0,0,0
1555489157828.12,-15.88,0,0,0,0,0
1555489157843.75,3.01,0,0,0,0,0
1555489157859.38,32.89,0,0,0,0,0
1555489157875,66.52,0,0,0,0,0
1555489157890.62,95.6,0,0,0,0,0
1555489157906.25,114.24,0,0,0,0,0
1555489157921.88,121.38,0,0,0,0,0
1555489157937.5,120.05,0,0,0,0,0
1555489157953.12,116.67,0,0,0,0,0
1555489157968.75,118.16,0,0,0,0,0
1555489157984.38,128.47,0,0,0,0,0
1555489158000,146.91,0,0,0,0,0
1555489158015.62,169.83,0,0,0,0,0
1555489158031.25,193.15,0,0,0,0,0
1555489158046.88,214.25,0,0,0,0,0
1555489158062.5,231.92,0,0,0,0,0
1555489158078.12,245.71,0,0,0,0,0
1555489158093.75,255,0,0,0,0,0
1555489158109.38,258.36,0,0,0,0,0
1555489158125,256.11,0,0,0,0,0
1555489158140.62,246.96,0,0,0,0,0
1555489158156.25,230.79,0,0,0,0,0
1555489158171.88,209.09,0,0,0,0,0
1555489158187.5,184.15,0,0,0,0,0
1555489158203.12,157.93,0,0,0,0,0
1555489158218.75,131.44,0,0,0,0,0
1555489158234.38,104.82,0,0,0,0,0
1555489158250,77.4,0,0,0,0,0
1555489158265.62,48.36,0,0,0,0,0
1555489158281.25,16.92,0,0,0,0,0
1555489158296.88,-16.71,0,0,0,0,0
1555489158312.5,-51.91,0,0,0,0,0
1555489158328.12,-86.44,0,0,0,0,0
1555489158343.75,-119.04,0,0,0,0,0
1555489158359.38,-149.68,0,0,0,0,0
1555489158375,-179.67,0,0,0,0,0
1555489158390.62,-210.97,0,0,0,0,0
1555489158406.25,-244.89,0,0,0,0,0
1555489158421.88,-280.84,0,0,0,0,0
1555489158437.5,-315.12,0,0,0,0,0
1555489158453.12,-341.78,0,0,0,0,0
1555489158468.75,-354.51,0,0,0,0,0
1555489158484.38,-349.48,0,0,0,0,0
1555489158500,-326.74,0,0,0,0,0
1555489158515.62,-290.41,0,0,0,0,0
1555489158531.25,-247.13,0,0,0,0,0
1555489158546.88,-203.78,0,0,0,0,0
1555489158562.5,-165.52,0,0,0,0,0
1555489158578.12,-134.53,0,0,0,0,0
1555489158593.75,-110.51,0,0,0,0,0
1555489158609.38,-91.86,0,0,0,0,0
1555489158625,-76.98,0,0,0,0,0
1555489158640.62,-64.76,0,0,0,0,0
1555489158656.25,-54.47,0,0,0,0,0
1555489158671.88,-45.6,0,0,0,0,0
1555489158687.5,-37.79,0,0,0,0,0
1555489158703.12,-31.09,0,0,0,0,0
1555489158718.75,-26.05,0,0,0,0,0
1555489158734.38,-23.53,0,0,0,0,0
1555489158750,-24.33,0,0,0,0,0
1555489158765.62,-28.48,0,0,0,0,0
1555489158781.25,-34.49,0,0,0,0,0
1555489158796.88,-39.28,0,0,0,0,0
1555489158812.5,-38.89,0,0,0,0,0
1555489158828.12,-29.94,0,0,0,0,0
1555489158843.75,-10.97,0,0,0,0,0
1555489158859.38,16.87,0,0,0,0,0
1555489158875,50.09,0,0,0,0,0
1555489158890.62,84.12,0,0,0,0,0
1555489158906.25,114.67,0,0,0,0,0
1555489158921.88,138.86,0,0,0,0,0
1555489158937.5,155.52,0,0,0,0,0
1555489158953.12,164.73,0,0,0,0,0
1555489158968.75,167.19,0,0,0,0,0
1555489158984.38,163.67,0,0,0,0,0
1555489159000,155.08,0,0,0,0,0
1555489159015.62,142.5,0,0,0,0,0
1555489159031.25,127.61,0,0,0,0,0
1555489159046.88,112.37,0,0,0,0,0
1555489159062.5,98.71,0,0,0,0,0
1555489159078.12,88.03,0,0,0,0,0
1555489159093.75,80.84,0,0,0,0,0
1555489159109.38,76.56,0,0,0,0,0
1555489159125,73.83,0,0,0,0,0
1555489159140.62,71.07,0,0,0,0,0
1555489159156.25,66.97,0,0,0,0,0
1555489159171.88,61.09,0,0,0,0,0
1555489159187.5,53.73,0,0,0,0,0
1555489159203.12,45.81,0,0,0,0,0
1555489159218.75,38.17,0,0,0,0,0
1555489159234.38,31.13,0,0,0,0,0
1555489159250,24.29,0,0,0,0,0
1555489159265.62,16.76,0,0,0,0,0
1555489159281.25,7.64,0,0,0,0,0
1555489159296.88,-3.73,0,0,0,0,0
1555489159312.5,-17.43,0,0,0,0,0
1555489159328.12,-33.05,0,0,0,0,0
1555489159343.75,-49.48,0,0,0,0,0
1555489159359.38,-64.82,0,0,0,0,0
1555489159375,-76.45,0,0,0,0,0
1555489159390.62,-81.39,0,0,0,0,0
1555489159406.25,-77.14,0,0,0,0,0
1555489159421.88,-62.69,0,0,0,0,0
1555489159437.5,-39.12,0,0,0,0,0
1555489159453.12,-9.48,0,0,0,0,0
1555489159468.75,22.12,0,0,0,0,0
1555489159484.38,51.75,0,0,0,0,0
1555489159500,76.64,0,0,0,0,0
1555489159515.62,95.34,0,0,0,0,0
1555489159531.25,107.57,0,0,0,0,0
1555489159546.88,113.54,0,0,0,0,0
1555489159562.5,113.68,0,0,0,0,0
1555489159578.12,108.52,0,0,0,0,0
1555489159593.75,98.97,0,0,0,0,0
1555489159609.38,86.45,0,0,0,0,0
1555489159625,72.83,0,0,0,0,0
1555489159640.62,60.24,0,0,0,0,0
1555489159656.25,50.52,0,0,0,0,0
1555489159671.88,44.81,0,0,0,0,0
1555489159687.5,43.12,0,0,0,0,0
1555489159703.12,44.29,0,0,0,0,0
1555489159718.75,46.26,0,0,0,0,0
1555489159734.38,46.79,0,0,0,0,0
1555489159750,44.24,0,0,0,0,0
1555489159765.62,38.1,0,0,0,0,0
1555489159781.25,29.21,0,0,0,0,0
1555489159796.88,19.22,0,0,0,0,0
1555489159812.5,9.71,0,0,0,0,0
1555489159828.12,1.44,0,0,0,0,0
1555489159843.75,-5.82,0,0,0,0,0
1555489159859.38,-13.02,0,0,0,0,0
1555489159875,-21.18,0,0,0,0,0
1555489159890.62,-30.9,0,0,0,0,0
1555489159906.25,-42.3,0,0,0,0,0
1555489159921.88,-55.18,0,0,0,0,0
1555489159937.5,-69.09,0,0,0,0,0
1555489159953.12,-83.3,0,0,0,0,0
1555489159968.75,-96.3,0,0,0,0,0
1555489159984.38,-105.67,0,0,0,0,0
1555489160000,-108.34,0,0,0,0,0
1555489160015.62,-101.65,0,0,0,0,0
1555489160031.25,-84.6,0,0,0,0,0
1555489160046.88,-58.58,0,0,0,0,0
1555489160062.5,-27.27,0,0,0,0,0
1555489160078.12,4.48,0,0,0,0,0
1555489160093.75,32.22,0,0,0,0,0
1555489160109.38,53.16,0,0,0,0,0
1555489160125,66.45,0,0,0,0,0
1555489160140.62,72.76,0,0,0,0,0
1555489160156.25,73.28,0,0,0,0,0
1555489160171.88,69.13,0,0,0,0,0
1555489160187.5,61.02,0,0,0,0,0
1555489160203.12,49.58,0,0,0,0,0
1555489160218.75,35.89,0,0,0,0,0
1555489160234.38,21.51,0,0,0,0,0
1555489160250,8.45,0,0,0,0,0
1555489160265.62,-1.44,0,0,0,0,0
1555489160281.25,-7.07,0,0,0,0,0
1555489160296.88,-8.39,0,0,0,0,0
1555489160312.5,-6.45,0,0,0,0,0
1555489160328.12,-3.05,0,0,0,0,0
1555489160343.75,-0.16,0,0,0,0,0
1555489160359.38,0.81,0,0,0,0,0
1555489160375,-0.84,0,0,0,0,0
1555489160390.62,-4.84,0,0,0,0,0
1555489160406.25,-10.35,0,0,0,0,0
1555489160421.88,-16.26,0,0,0,0,0
1555489160437.5,-21.6,0,0,0,0,0
1555489160453.12,-25.8,0,0,0,0,0
1555489160468.75,-28.87,0,0,0,0,0
1555489160484.38,-31.39,0,0,0,0,0
1555489160500,-34.23,0,0,0,0,0
1555489160515.62,-38.52,0,0,0,0,0
1555489160531.25,-45.11,0,0,0,0,0
1555489160546.88,-54.4,0,0,0,0,0
1555489160562.5,-65.74,0,0,0,0,0
1555489160578.12,-77.44,0,0,0,0,0
1555489160593.75,-86.75,0,0,0,0,0
1555489160609.38,-90.41,0,0,0,0,0
1555489160625,-85.66,0,0,0,0,0
1555489160640.62,-71.08,0,0,0,0,0
1555489160656.25,-47.39,0,0,0,0,0
1555489160671.88,-17.37,0,0,0,0,0
1555489160687.5,14.88,0,0,0,0,0
1555489160703.12,45.11,0,0,0,0,0
1555489160718.75,70.08,0,0,0,0,0
1555489160734.38,88.05,0,0,0,0,0
1555489160750,98.79,0,0,0,0,0
1555489160765.62,102.94,0,0,0,0,0
1555489160781.25,101.35,0,0,0,0,0
1555489160796.88,94.77,0,0,0,0,0
1555489160812.5,83.96,0,0,0,0,0
1555489160828.12,70.01,0,0,0,0,0
1555489160843.75,54.42,0,0,0,0,0
1555489160859.38,39.18,0,0,0,0,0
1555489160875,26.17,0,0,0,0,0
1555489160890.62,16.66,0,0,0,0,0
1555489160906.25,11,0,0,0,0,0
1555489160921.88,8.58,0,0,0,0,0
1555489160937.5,8.11,0,0,0,0,0
1555489160953.12,8.32,0,0,0,0,0
1555489160968.75,8.28,0,0,0,0,0
1555489160984.38,7.53,0,0,0,0,0
1555489161000,6.1,0,0,0,0,0
1555489161015.62,4.14,0,0,0,0,0
1555489161031.25,1.6,0,0,0,0,0
1555489161046.88,-1.88,0,0,0,0,0
1555489161062.5,-6.68,0,0,0,0,0
1555489161078.12,-13.09,0,0,0,0,0
1555489161093.75,-20.84,0,0,0,0,0
1555489161109.38,-29.26,0,0,0,0,0
1555489161125,-37.75,0,0,0,0,0
1555489161140.62,-46.14,0,0,0,0,0
1555489161156.25,-54.9,0,0,0,0,0
1555489161171.88,-64.75,0,0,0,0,0
1555489161187.5,-75.71,0,0,0,0,0
1555489161203.12,-86.29,0,0,0,0,0
1555489161218.75,-93.44,0,0,0,0,0
1555489161234.38,-93.46,0,0,0,0,0
1555489161250,-83.52,0,0,0,0,0
1555489161265.62,-63.08,0,0,0,0,0
1555489161281.25,-34.41,0,0,0,0,0
1555489161296.88,-1.95,0,0,0,0,0
1555489161312.5,29.21,0,0,0,0,0
1555489161328.12,55.08,0,0,0,0,0
1555489161343.75,73.56,0,0,0,0,0
1555489161359.38,84.57,0,0,0,0,0
1555489161375,89.31,0,0,0,0,0
1555489161390.62,89.29,0,0,0,0,0
1555489161406.25,85.82,0,0,0,0,0
1555489161421.88,79.98,0,0,0,0,0
1555489161437.5,72.72,0,0,0,0,0
1555489161453.12,65.07,0,0,0,0,0
1555489161468.75,58.01,0,0,0,0,0
1555489161484.38,52.04,0,0,0,0,0
1555489161500,46.93,0,0,0,0,0
1555489161515.62,41.92,0,0,0,0,0
1555489161531.25,36.05,0,0,0,0,0
1555489161546.88,28.81,0,0,0,0,0
1555489161562.5,20.52,0,0,0,0,0
1555489161578.12,12.19,0,0,0,0,0
1555489161593.75,5.02,0,0,0,0,0
1555489161609.38,-0.13,0,0,0,0,0
1555489161625,-3.17,0,0,0,0,0
1555489161640.62,-4.7,0,0,0,0,0
1555489161656.25,-5.67,0,0,0,0,0
1555489161671.88,-7.07,0,0,0,0,0
1555489161687.5,-9.59,0,0,0,0,0
1555489161703.12,-13.73,0,0,0,0,0
1555489161718.75,-19.87,0,0,0,0,0
1555489161734.38,-28.44,0,0,0,0,0
1555489161750,-39.93,0,0,0,0,0
1555489161765.62,-54.44,0,0,0,0,0
1555489161781.25,-71.33,0,0,0,0,0
1555489161796.88,-88.68,0,0,0,0,0
1555489161812.5,-103.39,0,0,0,0,0
1555489161828.12,-111.65,0,0,0,0,0
1555489161843.75,-110.16,0,0,0,0,0
1555489161859.38,-97.27,0,0,0,0,0
1555489161875,-73.68,0,0,0,0,0
1555489161890.62,-42.47,0,0,0,0,0
1555489161906.25,-8.35,0,0,0,0,0
1555489161921.88,23.47,0,0,0,0,0
1555489161937.5,48.54,0,0,0,0,0
1555489161953.12,64.21,0,0,0,0,0
1555489161968.75,70.25,0,0,0,0,0
1555489161984.38,68.78,0,0,0,0,0
1555489162000,63.28,0,0,0,0,0
1555489162015.62,57.32,0,0,0,0,0
1555489162031.25,53.13,0,0,0,0,0
1555489162046.88,50.7,0,0,0,0,0
1555489162062.5,48.09,0,0,0,0,0
1555489162078.12,42.74,0,0,0,0,0
1555489162093.75,33.18,0,0,0,0,0
1555489162109.38,20.21,0,0,0,0,0
1555489162125,6.73,0,0,0,0,0
1555489162140.62,-3.75,0,0,0,0,0
1555489162156.25,-8.88,0,0,0,0,0
1555489162171.88,-8.74,0,0,0,0,0
1555489162187.5,-5.73,0,0,0,0,0
1555489162203.12,-3.17,0,0,0,0,0
1555489162218.75,-3.61,0,0,0,0,0
1555489162234.38,-7.7,0,0,0,0,0
1555489162250,-14.28,0,0,0,0,0
1555489162265.62,-21.18,0,0,0,0,0
1555489162281.25,-26.79,0,0,0,0,0
1555489162296.88,-30.71,0,0,0,0,0
1555489162312.5,-33.91,0,0,0,0,0
1555489162328.12,-37.94,0,0,0,0,0
1555489162343.75,-44.06,0,0,0,0,0
1555489162359.38,-52.66,0,0,0,0,0
1555489162375,-63.2,0,0,0,0,0
1555489162390.62,-74.49,0,0,0,0,0
1555489162406.25,-84.78,0,0,0,0,0
1555489162421.88,-92.07,0,0,0,0,0
1555489162437.5,-94.01,0,0,0,0,0
1555489162453.12,-88.45,0,0,0,0,0
1555489162468.75,-74.18,0,0,0,0,0
1555489162484.38,-51.63,0,0,0,0,0
1555489162500,-23.11,0,0,0,0,0
1555489162515.62,7.68,0,0,0,0,0
1555489162531.25,36.86,0,0,0,0,0
1555489162546.88,61.43,0,0,0,0,0
1555489162562.5,79.95,0,0,0,0,0
1555489162578.12,92.43,0,0,0,0,0
1555489162593.75,99.77,0,0,0,0,0
1555489162609.38,102.78,0,0,0,0,0
1555489162625,101.79,0,0,0,0,0
1555489162640.62,96.48,0,0,0,0,0
1555489162656.25,86.36,0,0,0,0,0
1555489162671.88,71.35,0,0,0,0,0
1555489162687.5,52.43,0,0,0,0,0
1555489162703.12,31.69,0,0,0,0,0
1555489162718.75,12.2,0,0,0,0,0
1555489162734.38,-2.82,0,0,0,0,0
1555489162750,-11.18,0,0,0,0,0
1555489162765.62,-12.48,0,0,0,0,0
1555489162781.25,-8.31,0,0,0,0,0
1555489162796.88,-1.63,0,0,0,0,0
1555489162812.5,4.5,0,0,0,0,0
1555489162828.12,8.2,0,0,0,0,0
1555489162843.75,9.14,0,0,0,0,0
1555489162859.38,8.3,0,0,0,0,0
1555489162875,6.95,0,0,0,0,0
1555489162890.62,5.63,0,0,0,0,0
1555489162906.25,3.92,0,0,0,0,0
1555489162921.88,0.78,0,0,0,0,0
1555489162937.5,-4.48,0,0,0,0,0
1555489162953.12,-11.64,0,0,0,0,0
1555489162968.75,-19.72,0,0,0,0,0
1555489162984.38,-27.74,0,0,0,0,0
1555489163000,-35.47,0,0,0,0,0
1555489163015.62,-43.29,0,0,0,0,0
1555489163031.25,-51.51,0,0,0,0,0
1555489163046.88,-59.27,0,0,0,0,0
1555489163062.5,-64.32,0,0,0,0,0
1555489163078.12,-63.81,0,0,0,0,0
1555489163093.75,-55.71,0,0,0,0,0
1555489163109.38,-40,0,0,0,0,0
1555489163125,-18.73,0,0,0,0,0
1555489163140.62,4.94,0,0,0,0,0
1555489163156.25,28.4,0,0,0,0,0
1555489163171.88,50.4,0,0,0,0,0
1555489163187.5,70.93,0,0,0,0,0
1555489163203.12,90.02,0,0,0,0,0
1555489163218.75,106.44,0,0,0,0,0
1555489163234.38,117.48,0,0,0,0,0
1555489163250,119.7,0,0,0,0,0
1555489163265.62,110.62,0,0,0,0,0
1555489163281.25,90.23,0,0,0,0,0
1555489163296.88,61.61,0,0,0,0,0
1555489163312.5,30.12,0,0,0,0,0
1555489163328.12,1.86,0,0,0,0,0
1555489163343.75,-18.44,0,0,0,0,0
1555489163359.38,-28.93,0,0,0,0,0
1555489163375,-30.79,0,0,0,0,0
1555489163390.62,-27.44,0,0,0,0,0
1555489163406.25,-22.79,0,0,0,0,0
1555489163421.88,-19.7,0,0,0,0,0
1555489163437.5,-19.25,0,0,0,0,0
1555489163453.12,-21.02,0,0,0,0,0
1555489163468.75,-23.96,0,0,0,0,0
1555489163484.38,-27.28,0,0,0,0,0
1555489163500,-30.85,0,0,0,0,0
1555489163515.62,-34.97,0,0,0,0,0
1555489163531.25,-39.91,0,0,0,0,0
1555489163546.88,-45.6,0,0,0,0,0
1555489163562.5,-51.73,0,0,0,0,0
1555489163578.12,-58.09,0,0,0,0,0
1555489163593.75,-64.88,0,0,0,0,0
1555489163609.38,-72.36,0,0,0,0,0
1555489163625,-80.38,0,0,0,0,0
1555489163640.62,-87.76,0,0,0,0,0
1555489163656.25,-92.32,0,0,0,0,0
1555489163671.88,-91.4,0,0,0,0,0
1555489163687.5,-83.11,0,0,0,0,0
1555489163703.12,-67.19,0,0,0,0,0
1555489163718.75,-45.37,0,0,0,0,0
1555489163734.38,-20.84,0,0,0,0,0
1555489163750,2.81,0,0,0,0,0
1555489163765.62,22.77,0,0,0,0,0
1555489163781.25,37.61,0,0,0,0,0
1555489163796.88,47.17,0,0,0,0,0
1555489163812.5,51.98,0,0,0,0,0
1555489163828.12,52.65,0,0,0,0,0
1555489163843.75,49.59,0,0,0,0,0
1555489163859.38,43.12,0,0,0,0,0
1555489163875,33.97,0,0,0,0,0
1555489163890.62,23.36,0,0,0,0,0
1555489163906.25,12.89,0,0,0,0,0
1555489163921.88,4.08,0,0,0,0,0
1555489163937.5,-2.15,0,0,0,0,0
1555489163953.12,-5.73,0,0,0,0,0
1555489163968.75,-7.34,0,0,0,0,0
1555489163984.38,-7.99,0,0,0,0,0
1555489164000,-8.46,0,0,0,0,0
1555489164015.62,-9.12,0,0,0,0,0
1555489164031.25,-9.89,0,0,0,0,0
1555489164046.88,-10.54,0,0,0,0,0
1555489164062.5,-11.04,0,0,0,0,0
1555489164078.12,-11.58,0,0,0,0,0
1555489164093.75,-12.61,0,0,0,0,0
1555489164109.38,-14.7,0,0,0,0,0
1555489164125,-18.39,0,0,0,0,0
1555489164140.62,-24.07,0,0,0,0,0
1555489164156.25,-32.15,0,0,0,0,0
1555489164171.88,-42.84,0,0,0,0,0
1555489164187.5,-55.84,0,0,0,0,0
1555489164203.12,-69.99,0,0,0,0,0
1555489164218.75,-83.06,0,0,0,0,0
1555489164234.38,-91.93,0,0,0,0,0
1555489164250,-93.5,0,0,0,0,0
1555489164265.62,-85.66,0,0,0,0,0
1555489164281.25,-68.22,0,0,0,0,0
1555489164296.88,-43.19,0,0,0,0,0
1555489164312.5,-14.23,0,0,0,0,0
1555489164328.12,14.4,0,0,0,0,0
1555489164343.75,39.21,0,0,0,0,0
1555489164359.38,58.13,0,0,0,0,0
1555489164375,70.71,0,0,0,0,0
1555489164390.62,77.51,0,0,0,0,0
1555489164406.25,79.4,0,0,0,0,0
1555489164421.88,77.05,0,0,0,0,0
1555489164437.5,70.8,0,0,0,0,0
1555489164453.12,60.98,0,0,0,0,0
1555489164468.75,48.35,0,0,0,0,0
1555489164484.38,34.31,0,0,0,0,0
1555489164500,20.78,0,0,0,0,0
1555489164515.62,9.78,0,0,0,0,0
1555489164531.25,2.8,0,0,0,0,0
1555489164546.88,0.21,0,0,0,0,0
1555489164562.5,1.04,0,0,0,0,0
1555489164578.12,3.36,0,0,0,0,0
1555489164593.75,4.88,0,0,0,0,0
1555489164609.38,3.96,0,0,0,0,0
1555489164625,0.1,0,0,0,0,0
1555489164640.62,-5.94,0,0,0,0,0
1555489164656.25,-12.85,0,0,0,0,0
1555489164671.88,-19.51,0,0,0,0,0
1555489164687.5,-25.67,0,0,0,0,0
1555489164703.12,-32.05,0,0,0,0,0
1555489164718.75,-39.79,0,0,0,0,0
1555489164734.38,-49.73,0,0,0,0,0
1555489164750,-62.03,0,0,0,0,0
1555489164765.62,-76.4,0,0,0,0,0
1555489164781.25,-92.66,0,0,0,0,0
1555489164796.88,-111.01,0,0,0,0,0
1555489164812.5,-131.65,0,0,0,0,0
1555489164828.12,-153.89,0,0,0,0,0
1555489164843.75,-175.2,0,0,0,0,0
1555489164859.38,-191.43,0,0,0,0,0
1555489164875,-197.89,0,0,0,0,0
1555489164890.62,-191.19,0,0,0,0,0
1555489164906.25,-170.69,0,0,0,0,0
1555489164921.88,-138.8,0,0,0,0,0
1555489164937.5,-99.47,0,0,0,0,0
1555489164953.12,-56.42,0,0,0,0,0
1555489164968.75,-11.83,0,0,0,0,0
1555489164984.38,33.31,0,0,0,0,0
1555489165000,77.57,0,0,0,0,0
1555489165015.62,117.24,0,0,0,0,0
1555489165031.25,146.27,0,0,0,0,0
1555489165046.88,158.4,0,0,0,0,0
1555489165062.5,150.67,0,0,0,0,0
1555489165078.12,126.21,0,0,0,0,0
1555489165093.75,93.6,0,0,0,0,0
1555489165109.38,63.57,0,0,0,0,0
1555489165125,44.04,0,0,0,0,0
1555489165140.62,36.83,0,0,0,0,0
1555489165156.25,37.5,0,0,0,0,0
1555489165171.88,38.57,0,0,0,0,0
1555489165187.5,33.86,0,0,0,0,0
1555489165203.12,21.43,0,0,0,0,0
1555489165218.75,3.29,0,0,0,0,0
1555489165234.38,-17.01,0,0,0,0,0
1555489165250,-37.04,0,0,0,0,0
1555489165265.62,-56.46,0,0,0,0,0
1555489165281.25,-75.92,0,0,0,0,0
1555489165296.88,-95.08,0,0,0,0,0
1555489165312.5,-111.65,0,0,0,0,0
1555489165328.12,-122.08,0,0,0,0,0
1555489165343.75,-123.28,0,0,0,0,0
1555489165359.38,-114.4,0,0,0,0,0
1555489165375,-97.3,0,0,0,0,0
1555489165390.62,-75.45,0,0,0,0,0
1555489165406.25,-52.27,0,0,0,0,0
1555489165421.88,-30.11,0,0,0,0,0
1555489165437.5,-9.87,0,0,0,0,0
1555489165453.12,8.36,0,0,0,0,0
1555489165468.75,24.6,0,0,0,0,0
1555489165484.38,38.37,0,0,0,0,0
1555489165500,48.96,0,0,0,0,0
1555489165515.62,55.8,0,0,0,0,0
1555489165531.25,59.04,0,0,0,0,0
1555489165546.88,59.69,0,0,0,0,0
1555489165562.5,59.43,0,0,0,0,0
1555489165578.12,60.38,0,0,0,0,0
1555489165593.75,64.68,0,0,0,0,0
1555489165609.38,74.17,0,0,0,0,0
1555489165625,89.89,0,0,0,0,0
1555489165640.62,111.49,0,0,0,0,0
1555489165656.25,136.81,0,0,0,0,0
1555489165671.88,161.99,0,0,0,0,0
1555489165687.5,182.33,0,0,0,0,0
1555489165703.12,193.95,0,0,0,0,0
1555489165718.75,195.32,0,0,0,0,0
1555489165734.38,188.04,0,0,0,0,0
1555489165750,176.05,0,0,0,0,0
1555489165765.62,163.8,0,0,0,0,0
1555489165781.25,154.08,0,0,0,0,0
1555489165796.88,147.04,0,0,0,0,0
1555489165812.5,140.52,0,0,0,0,0
1555489165828.12,131.55,0,0,0,0,0
1555489165843.75,118.19,0,0,0,0,0
1555489165859.38,100.5,0,0,0,0,0
1555489165875,80.31,0,0,0,0,0
1555489165890.62,59.92,0,0,0,0,0
1555489165906.25,40.8,0,0,0,0,0
1555489165921.88,22.8,0,0,0,0,0
1555489165937.5,4.47,0,0,0,0,0
1555489165953.12,-15.94,0,0,0,0,0
1555489165968.75,-39.14,0,0,0,0,0
1555489165984.38,-63.85,0,0,0,0,0
1555489166000,-86.77,0,0,0,0,0
1555489166015.62,-103.62,0,0,0,0,0
1555489166031.25,-110.79,0,0,0,0,0
1555489166046.88,-106.89,0,0,0,0,0
1555489166062.5,-93.43,0,0,0,0,0
1555489166078.12,-74.02,0,0,0,0,0
1555489166093.75,-52.57,0,0,0,0,0
1555489166109.38,-31.62,0,0,0,0,0
1555489166125,-11.56,0,0,0,0,0
1555489166140.62,8.64,0,0,0,0,0
1555489166156.25,29.85,0,0,0,0,0
1555489166171.88,51.41,0,0,0,0,0
1555489166187.5,71.12,0,0,0,0,0
1555489166203.12,86.03,0,0,0,0,0
1555489166218.75,94.02,0,0,0,0,0
1555489166234.38,94.85,0,0,0,0,0
1555489166250,90.09,0,0,0,0,0
1555489166265.62,82.36,0,0,0,0,0
1555489166281.25,74.2,0,0,0,0,0
1555489166296.88,67.3,0,0,0,0,0
1555489166312.5,62.47,0,0,0,0,0
1555489166328.12,59.92,0,0,0,0,0
1555489166343.75,59.39,0,0,0,0,0
1555489166359.38,60.23,0,0,0,0,0
1555489166375,61.32,0,0,0,0,0
1555489166390.62,61.16,0,0,0,0,0
1555489166406.25,58.36,0,0,0,0,0
1555489166421.88,52.23,0,0,0,0,0
1555489166437.5,43.05,0,0,0,0,0
1555489166453.12,31.98,0,0,0,0,0
1555489166468.75,20.64,0,0,0,0,0
1555489166484.38,10.31,0,0,0,0,0
1555489166500,1.57,0,0,0,0,0
1555489166515.62,-5.93,0,0,0,0,0
1555489166531.25,-13.26,0,0,0,0,0
1555489166546.88,-21.67,0,0,0,0,0
1555489166562.5,-32.06,0,0,0,0,0
1555489166578.12,-44.54,0,0,0,0,0
1555489166593.75,-58.04,0,0,0,0,0
1555489166609.38,-70.36,0,0,0,0,0
1555489166625,-78.57,0,0,0,0,0
1555489166640.62,-79.88,0,0,0,0,0
1555489166656.25,-72.45,0,0,0,0,0
1555489166671.88,-56.32,0,0,0,0,0
1555489166687.5,-33.55,0,0,0,0,0
1555489166703.12,-7.84,0,0,0,0,0
1555489166718.75,16.65,0,0,0,0,0
1555489166734.38,36.53,0,0,0,0,0
1555489166750,50.14,0,0,0,0,0
1555489166765.62,57.7,0,0,0,0,0
1555489166781.25,60.77,0,0,0,0,0
1555489166796.88,61.35,0,0,0,0,0
1555489166812.5,60.94,0,0,0,0,0
1555489166828.12,60.44,0,0,0,0,0
1555489166843.75,60,0,0,0,0,0
1555489166859.38,59.62,0,0,0,0,0
1555489166875,59.31,0,0,0,0,0
1555489166890.62,59.1,0,0,0,0,0
1555489166906.25,58.92,0,0,0,0,0
1555489166921.88,58.38,0,0,0,0,0
1555489166937.5,56.82,0,0,0,0,0
1555489166953.12,53.64,0,0,0,0,0
1555489166968.75,48.59,0,0,0,0,0
1555489166984.38,42.01,0,0,0,0,0
1555489167000,34.61,0,0,0,0,0
1555489167015.62,27.27,0,0,0,0,0
1555489167031.25,20.52,0,0,0,0,0
1555489167046.88,14.37,0,0,0,0,0
1555489167062.5,8.38,0,0,0,0,0
1555489167078.12,1.76,0,0,0,0,0
1555489167093.75,-6.33,0,0,0,0,0
1555489167109.38,-16.37,0,0,0,0,0
1555489167125,-28.21,0,0,0,0,0
1555489167140.62,-41,0,0,0,0,0
1555489167156.25,-53.15,0,0,0,0,0
1555489167171.88,-62.65,0,0,0,0,0
1555489167187.5,-67.66,1,0,0,0,0
1555489167203.12,-67.09,1,0,0,0,0
1555489167218.75,-61.03,1,0,0,0,0
1555489167234.38,-50.79,1,0,0,0,0
1555489167250,-38.45,1,0,0,0,0
1555489167265.62,-26.1,1,0,0,0,0
1555489167281.25,-15.17,1,0,0,0,0
1555489167296.88,-6.13,1,0,0,0,0
1555489167312.5,1.26,1,0,0,0,0
1555489167328.12,7.4,1,0,0,0,0
1555489167343.75,12.24,0,0,0,0,0
1555489167359.38,15.16,0,0,0,0,0
1555489167375,15.34,0,0,0,0,0
1555489167390.62,12.38,0,0,0,0,0
1555489167406.25,6.75,0,0,0,0,0
1555489167421.88,-0.09,0,0,0,0,0
1555489167437.5,-6.27,0,0,0,0,0
1555489167453.12,-10.26,0,0,0,0,0
1555489167468.75,-11.52,0,0,0,0,0
1555489167484.38,-10.7,0,0,0,0,0
1555489167500,-9.23,0,0,0,0,0
1555489167515.62,-8.59,0,0,0,0,0
1555489167531.25,-9.6,0,0,0,0,0
1555489167546.88,-12.22,0,0,0,0,0
1555489167562.5,-15.78,0,0,0,0,0
1555489167578.12,-19.41,0,0,0,0,0
1555489167593.75,-22.6,0,0,0,0,0
1555489167609.38,-25.33,0,0,0,0,0
1555489167625,-27.95,0,0,0,0,0
1555489167640.62,-30.93,0,0,0,0,0
1555489167656.25,-34.59,0,0,0,0,0
1555489167671.88,-38.89,0,0,0,0,0
1555489167687.5,-43.55,0,0,0,0,0
1555489167703.12,-48,0,0,0,0,0
1555489167718.75,-51.5,0,0,0,0,0
1555489167734.38,-53.11,0,0,0,0,0
1555489167750,-51.92,0,0,0,0,0
1555489167765.62,-47.29,0,0,0,0,0
1555489167781.25,-39.16,0,0,0,0,0
1555489167796.88,-28.13,0,0,0,0,0
1555489167812.5,-15.35,0,0,0,0,0
1555489167828.12,-2.11,0,0,0,0,0
1555489167843.75,10.56,0,0,0,0,0
1555489167859.38,22.08,0,0,0,0,0
1555489167875,32.11,0,0,0,0,0
1555489167890.62,40.37,0,0,0,0,0
1555489167906.25,46.32,0,0,0,0,0
1555489167921.88,49.2,0,0,0,0,0
1555489167937.5,48.41,0,0,0,0,0
1555489167953.12,43.89,0,0,0,0,0
1555489167968.75,36.34,0,0,0,0,0
1555489167984.38,27.19,0,0,0,0,0
1555489168000,18.21,0,0,0,0,0
1555489168015.62,10.88,0,0,0,0,0
1555489168031.25,6.02,0,0,0,0,0
1555489168046.88,3.49,0,0,0,0,0
1555489168062.5,2.22,0,0,0,0,0
1555489168078.12,0.61,0,0,0,0,0
1555489168093.75,-2.99,0,0,0,0,0
1555489168109.38,-9.57,0,0,0,0,0
1555489168125,-19.21,0,0,0,0,0
1555489168140.62,-30.97,0,0,0,0,0
1555489168156.25,-43.38,0,0,0,0,0
1555489168171.88,-55.09,0,0,0,0,0
1555489168187.5,-65.43,0,0,0,0,0
1555489168203.12,-74.73,0,0,0,0,0
1555489168218.75,-84.01,0,0,0,0,0
1555489168234.38,-94.4,0,0,0,0,0
1555489168250,-106.51,0,0,0,0,0
1555489168265.62,-119.87,0,0,0,0,0
1555489168281.25,-132.92,0,0,0,0,0
1555489168296.88,-143.21,0,0,0,0,0
1555489168312.5,-147.89,0,0,0,0,0
1555489168328.12,-144.51,0,0,0,0,0
1555489168343.75,-131.75,0,0,0,0,0
1555489168359.38,-110.02,0,0,0,0,0
1555489168375,-81.59,0,0,0,0,0
1555489168390.62,-50.2,0,0,0,0,0
1555489168406.25,-19.91,0,0,0,0,0
1555489168421.88,6.09,0,0,0,0,0
1555489168437.5,26.23,0,0,0,0,0
1555489168453.12,40.8,0,0,0,0,0
1555489168468.75,51.22,0,0,0,0,0
1555489168484.38,58.95,0,0,0,0,0
1555489168500,64.8,0,0,0,0,0
1555489168515.62,68.72,0,0,0,0,0
1555489168531.25,70.44,0,0,0,0,0
1555489168546.88,70.16,0,0,0,0,0
1555489168562.5,68.94,0,0,0,0,0
1555489168578.12,68.32,0,0,0,0,0
1555489168593.75,69.42,0,0,0,0,0
1555489168609.38,72.16,0,0,0,0,0
1555489168625,75.04,0,0,0,0,0
1555489168640.62,76.03,0,0,0,0,0
1555489168656.25,73.63,0,0,0,0,0
1555489168671.88,67.88,0,0,0,0,0
1555489168687.5,60.45,0,0,0,0,0
1555489168703.12,53.72,0,0,0,0,0
1555489168718.75,49.5,0,0,0,0,0
1555489168734.38,48.12,0,0,0,0,0
1555489168750,48.26,0,0,0,0,0
1555489168765.62,47.8,0,0,0,0,0
1555489168781.25,44.86,0,0,0,0,0
1555489168796.88,38.65,0,0,0,0,0
1555489168812.5,29.52,0,0,0,0,0
1555489168828.12,18.68,0,0,0,0,0
1555489168843.75,7.52,0,0,0,0,0
1555489168859.38,-2.71,0,0,0,0,0
1555489168875,-11.03,0,0,0,0,0
1555489168890.62,-16.64,0,0,0,0,0
1555489168906.25,-18.92,0,0,0,0,0
1555489168921.88,-17.48,0,0,0,0,0
1555489168937.5,-12.42,0,0,0,0,0
1555489168953.12,-4.46,0,0,0,0,0
1555489168968.75,5.24,0,0,0,0,0
1555489168984.38,15.06,0,0,0,0,0
1555489169000,23.41,0,0,0,0,0
1555489169015.62,28.96,0,0,0,0,0
1555489169031.25,30.99,0,0,0,0,0
1555489169046.88,29.49,0,0,0,0,0
1555489169062.5,25.12,0,0,0,0,0
1555489169078.12,18.99,0,0,0,0,0
1555489169093.75,12.25,0,0,0,0,0
1555489169109.38,5.91,0,0,0,0,0
1555489169125,0.46,0,0,0,0,0
1555489169140.62,-4,0,0,0,0,0
1555489169156.25,-7.72,0,0,0,0,0
1555489169171.88,-11.07,0,0,0,0,0
1555489169187.5,-14.28,0,0,0,0,0
1555489169203.12,-17.36,0,0,0,0,0
1555489169218.75,-20.03,0,0,0,0,0
1555489169234.38,-21.85,0,0,0,0,0
1555489169250,-22.52,0,0,0,0,0
1555489169265.62,-22.13,0,0,0,0,0
1555489169281.25,-21.29,0,0,0,0,0
1555489169296.88,-20.93,0,0,0,0,0
1555489169312.5,-21.99,0,0,0,0,0
1555489169328.12,-24.96,0,0,0,0,0
1555489169343.75,-29.76,0,0,0,0,0
1555489169359.38,-35.73,0,0,0,0,0
1555489169375,-42.05,0,0,0,0,0
1555489169390.62,-47.91,0,0,0,0,0
1555489169406.25,-52.7,0,0,0,0,0
1555489169421.88,-55.83,0,0,0,0,0
1555489169437.5,-56.58,0,0,0,0,0
1555489169453.12,-54.11,0,0,0,0,0
1555489169468.75,-47.72,0,0,0,0,0
1555489169484.38,-37.19,0,0,0,0,0
1555489169500,-22.97,0,0,0,0,0
1555489169515.62,-6.34,0,0,0,0,0
1555489169531.25,10.9,0,0,0,0,0
1555489169546.88,26.76,0,0,0,0,0
1555489169562.5,39.58,0,0,0,0,0
1555489169578.12,48.32,0,0,0,0,0
1555489169593.75,52.69,0,0,0,0,0
1555489169609.38,53.07,0,0,0,0,0
1555489169625,50.11,0,0,0,0,0
1555489169640.62,44.44,0,0,0,0,0
1555489169656.25,36.63,0,0,0,0,0
1555489169671.88,27.34,0,0,0,0,0
1555489169687.5,17.51,0,0,0,0,0
1555489169703.12,8.42,0,0,0,0,0
1555489169718.75,1.48,0,0,0,0,0
1555489169734.38,-2.49,0,0,0,0,0
1555489169750,-3.7,0,0,0,0,0
1555489169765.62,-3.5,0,0,0,0,0
1555489169781.25,-3.82,0,0,0,0,0
1555489169796.88,-6.08,0,0,0,0,0
1555489169812.5,-10.46,0,0,0,0,0
1555489169828.12,-15.81,0,0,0,0,0
1555489169843.75,-20.33,0,0,0,0,0
1555489169859.38,-22.74,0,0,0,0,0
1555489169875,-23.13,0,0,0,0,0
1555489169890.62,-23.01,0,0,0,0,0
1555489169906.25,-24.74,0,0,0,0,0
1555489169921.88,-30.48,0,0,0,0,0
1555489169937.5,-41.3,0,0,0,0,0
1555489169953.12,-56.84,0,0,0,0,0
1555489169968.75,-75.42,0,0,0,0,0
1555489169984.38,-94.57,0,0,0,0,0
1555489170000,-111.51,0,0,0,0,0
1555489170015.62,-123.67,0,0,0,0,0
1555489170031.25,-129.09,0,0,0,0,0
1555489170046.88,-126.81,0,0,0,0,0
1555489170062.5,-117.01,0,0,0,0,0
1555489170078.12,-101.2,0,0,0,0,0
1555489170093.75,-81.76,0,0,0,0,0
1555489170109.38,-61.41,0,0,0,0,0
1555489170125,-42.41,0,0,0,0,0
1555489170140.62,-26.25,0,0,0,0,0
1555489170156.25,-13.35,0,0,0,0,0
1555489170171.88,-3.39,0,0,0,0,0
1555489170187.5,4.34,0,0,0,0,0
1555489170203.12,10.63,0,0,0,0,0
1555489170218.75,16.29,0,0,0,0,0
1555489170234.38,22.13,0,0,0,0,0
1555489170250,28.89,0,0,0,0,0
1555489170265.62,37.01,0,0,0,0,0
1555489170281.25,46.31,0,0,0,0,0
1555489170296.88,56.03,0,0,0,0,0
1555489170312.5,64.89,0,0,0,0,0
1555489170328.12,71.65,0,0,0,0,0
1555489170343.75,75.49,0,0,0,0,0
1555489170359.38,76.24,0,0,0,0,0
1555489170375,74.16,0,0,0,0,0
1555489170390.62,69.72,0,0,0,0,0
1555489170406.25,63.26,0,0,0,0,0
1555489170421.88,55.11,0,0,0,0,0
1555489170437.5,45.68,0,0,0,0,0
1555489170453.12,35.54,0,0,0,0,0
1555489170468.75,25.25,0,0,0,0,0
1555489170484.38,15.21,0,0,0,0,0
1555489170500,5.49,0,0,0,0,0
1555489170515.62,-3.92,0,0,0,0,0
1555489170531.25,-12.81,0,0,0,0,0
1555489170546.88,-20.57,0,0,0,0,0
1555489170562.5,-26.2,0,0,0,0,0
1555489170578.12,-28.67,0,0,0,0,0
1555489170593.75,-27.32,0,0,0,0,0
1555489170609.38,-22.04,0,0,0,0,0
1555489170625,-13.21,0,0,0,0,0
1555489170640.62,-1.57,0,0,0,0,0
1555489170656.25,11.88,0,0,0,0,0
1555489170671.88,25.86,0,0,0,0,0
1555489170687.5,38.82,0,0,0,0,0
1555489170703.12,49.16,0,0,0,0,0
1555489170718.75,55.62,0,0,0,0,0
1555489170734.38,57.65,0,0,0,0,0
1555489170750,55.66,0,0,0,0,0
1555489170765.62,50.82,0,0,0,0,0
1555489170781.25,44.49,0,0,0,0,0
1555489170796.88,37.92,0,0,0,0,0
1555489170812.5,31.82,0,0,0,0,0
1555489170828.12,26.52,0,0,0,0,0
1555489170843.75,22.02,0,0,0,0,0
1555489170859.38,18.18,0,0,0,0,0
1555489170875,14.86,0,0,0,0,0
1555489170890.62,11.93,0,0,0,0,0
1555489170906.25,9.24,0,0,0,0,0
1555489170921.88,6.7,0,0,0,0,0
1555489170937.5,4.31,0,0,0,0,0
1555489170953.12,2.15,0,0,0,0,0
1555489170968.75,0.22,0,0,0,0,0
1555489170984.38,-1.7,0,0,0,0,0
1555489171000,-4.04,0,0,0,0,0
1555489171015.62,-7.37,0,0,0,0,0
1555489171031.25,-12.12,0,0,0,0,0
1555489171046.88,-18.49,0,0,0,0,0
1555489171062.5,-26.3,0,0,0,0,0
1555489171078.12,-35.08,0,0,0,0,0
1555489171093.75,-44.17,0,0,0,0,0
1555489171109.38,-52.64,0,0,0,0,0
1555489171125,-59.46,0,0,0,0,0
1555489171140.62,-63.44,0,0,0,0,0
1555489171156.25,-63.45,0,0,0,0,0
1555489171171.88,-58.73,0,0,0,0,0
1555489171187.5,-49.31,0,0,0,0,0
1555489171203.12,-36.12,0,0,0,0,0
1555489171218.75,-20.85,0,0,0,0,0
1555489171234.38,-5.62,0,0,0,0,0
1555489171250,7.64,0,0,0,0,0
1555489171265.62,17.47,0,0,0,0,0
1555489171281.25,23.26,0,0,0,0,0
1555489171296.88,25.11,0,0,0,0,0
1555489171312.5,23.73,0,0,0,0,0
1555489171328.12,20.1,0,0,0,0,0
1555489171343.75,15.38,0,0,0,0,0
1555489171359.38,10.6,0,0,0,0,0
1555489171375,6.59,0,0,0,0,0
1555489171390.62,3.96,0,0,0,0,0
1555489171406.25,2.87,0,0,0,0,0
1555489171421.88,3.13,0,0,0,0,0
1555489171437.5,4.01,0,0,0,0,0
1555489171453.12,4.56,0,0,0,0,0
1555489171468.75,3.79,0,0,0,0,0
1555489171484.38,1.16,0,0,0,0,0
1555489171500,-3.13,0,0,0,0,0
1555489171515.62,-8.11,0,0,0,0,0
1555489171531.25,-12.35,0,0,0,0,0
1555489171546.88,-14.82,0,0,0,0,0
1555489171562.5,-15.35,0,0,0,0,0
1555489171578.12,-15.01,0,0,0,0,0
1555489171593.75,-15.64,0,0,0,0,0
1555489171609.38,-19.04,0,0,0,0,0
1555489171625,-26.13,0,0,0,0,0
1555489171640.62,-36.33,0,0,0,0,0
1555489171656.25,-47.76,0,0,0,0,0
1555489171671.88,-57.78,0,0,0,0,0
1555489171687.5,-63.93,0,0,0,0,0
1555489171703.12,-64.66,0,0,0,0,0
1555489171718.75,-59.71,0,0,0,0,0
1555489171734.38,-49.97,0,0,0,0,0
1555489171750,-37,0,0,0,0,0
1555489171765.62,-22.47,0,0,0,0,0
1555489171781.25,-7.7,0,0,0,0,0
1555489171796.88,6.46,0,0,0,0,0
1555489171812.5,19.65,0,0,0,0,0
1555489171828.12,31.69,0,0,0,0,0
1555489171843.75,42.31,0,0,0,0,0
1555489171859.38,51.03,0,0,0,0,0
1555489171875,57.15,0,0,0,0,0
1555489171890.62,60.03,0,0,0,0,0
1555489171906.25,59.4,0,0,0,0,0
1555489171921.88,55.7,0,0,0,0,0
1555489171937.5,49.99,0,0,0,0,0
1555489171953.12,43.77,0,0,0,0,0
1555489171968.75,38.42,0,0,0,0,0
1555489171984.38,34.75,0,0,0,0,0
1555489172000,32.81,0,0,0,0,0
1555489172015.62,32.03,0,0,0,0,0
1555489172031.25,31.72,0,0,0,0,0
1555489172046.88,31.45,0,0,0,0,0
1555489172062.5,31.24,0,0,0,0,0
1555489172078.12,31.25,0,0,0,0,0
1555489172093.75,31.49,0,0,0,0,0
1555489172109.38,31.63,0,0,0,0,0
1555489172125,31.07,0,0,0,0,0
1555489172140.62,29.41,0,0,0,0,0
1555489172156.25,26.74,0,0,0,0,0
1555489172171.88,23.71,0,0,0,0,0
1555489172187.5,21.21,0,0,0,0,0
1555489172203.12,19.72,0,0,0,0,0
1555489172218.75,18.95,0,0,0,0,0
1555489172234.38,18.11,0,0,0,0,0
1555489172250,16.7,0,0,0,0,0
1555489172265.62,15.3,0,0,0,0,0
1555489172281.25,15.9,0,0,0,0,0
1555489172296.88,21.21,0,0,0,0,0
1555489172312.5,33.45,0,0,0,0,0
1555489172328.12,52.94,0,0,0,0,0
1555489172343.75,77.7,0,0,0,0,0
1555489172359.38,103.96,0,0,0,0,0
1555489172375,127.74,0,0,0,0,0
1555489172390.62,146.45,0,0,0,0,0
1555489172406.25,159.8,0,0,0,0,0
1555489172421.88,169.53,0,0,0,0,0
1555489172437.5,178.17,0,0,0,0,0
1555489172453.12,187.61,0,0,0,0,0
1555489172468.75,198.37,0,0,0,0,0
1555489172484.38,209.69,0,0,0,0,0
1555489172500,220.19,0,0,0,0,0
1555489172515.62,228.52,0,0,0,0,0
1555489172531.25,233.42,0,0,0,0,0
1555489172546.88,233.5,0,0,0,0,0
1555489172562.5,227.15,0,0,0,0,0
1555489172578.12,213.39,0,0,0,0,0
1555489172593.75,193.39,0,0,0,0,0
1555489172609.38,171.73,0,0,0,0,0
1555489172625,155.91,0,0,0,0,0
1555489172640.62,153.56,0,0,0,0,0
1555489172656.25,168.43,0,0,0,0,0
1555489172671.88,197.38,0,0,0,0,0
1555489172687.5,230.26,0,0,0,0,0
1555489172703.12,253.42,0,0,0,0,0
1555489172718.75,255.02,0,0,0,0,0
1555489172734.38,229.76,0,0,0,0,0
1555489172750,180.41,0,0,0,0,0
1555489172765.62,115.67,0,0,0,0,0
1555489172781.25,45.92,0,0,0,0,0
1555489172796.88,-20.67,0,0,0,0,0
1555489172812.5,-79.61,0,0,0,0,0
1555489172828.12,-129.16,0,0,0,0,0
1555489172843.75,-168.18,0,0,0,0,0
1555489172859.38,-194.49,0,0,0,0,0
1555489172875,-205.45,0,0,0,0,0
1555489172890.62,-199.51,0,0,0,0,0
1555489172906.25,-178,0,0,0,0,0
1555489172921.88,-145.47,0,0,0,0,0
1555489172937.5,-108.51,0,0,0,0,0
1555489172953.12,-73.7,0,0,0,0,0
1555489172968.75,-45.59,0,0,0,0,0
1555489172984.38,-25.81,0,0,0,0,0
1555489173000,-13.27,0,0,0,0,0
1555489173015.62,-5.67,0,0,0,0,0
1555489173031.25,-1.14,0,0,0,0,0
1555489173046.88,0.62,0,0,0,0,0
1555489173062.5,-1.77,0,0,0,0,0
1555489173078.12,-10.1,0,0,0,0,0
1555489173093.75,-24.86,0,0,0,0,0
1555489173109.38,-43.99,0,0,0,0,0
1555489173125,-62.97,0,0,0,0,0
1555489173140.62,-76.77,0,0,0,0,0
1555489173156.25,-82.49,0,0,0,0,0
1555489173171.88,-81.17,0,0,0,0,0
1555489173187.5,-77.55,0,0,0,0,0
1555489173203.12,-77.72,0,0,0,0,0
1555489173218.75,-85.58,0,0,0,0,0
1555489173234.38,-100.65,0,0,0,0,0
1555489173250,-118.38,0,0,0,0,0
1555489173265.62,-133.1,0,0,0,0,0
1555489173281.25,-141.7,0,0,0,0,0
1555489173296.88,-145.52,0,0,0,0,0
1555489173312.5,-149.4,0,0,0,0,0
1555489173328.12,-158.48,0,0,0,0,0
1555489173343.75,-175.32,0,0,0,0,0
1555489173359.38,-198.49,0,0,0,0,0
1555489173375,-223.86,0,0,0,0,0
1555489173390.62,-246.78,0,0,0,0,0
1555489173406.25,-263.7,0,0,0,0,0
1555489173421.88,-272.52,0,0,0,0,0
1555489173437.5,-271.86,0,0,0,0,0
1555489173453.12,-260.61,0,0,0,0,0
1555489173468.75,-238.28,0,0,0,0,0
1555489173484.38,-206.23,0,0,0,0,0
1555489173500,-168.36,0,0,0,0,0
1555489173515.62,-130.6,0,0,0,0,0
1555489173531.25,-98.85,0,0,0,0,0
1555489173546.88,-76.63,0,0,0,0,0
1555489173562.5,-63.86,0,0,0,0,0
1555489173578.12,-57.56,0,0,0,0,0
1555489173593.75,-53.97,0,0,0,0,0
1555489173609.38,-50.67,0,0,0,0,0
1555489173625,-47.3,0,0,0,0,0
1555489173640.62,-44.92,0,0,0,0,0
1555489173656.25,-44.46,0,0,0,0,0
1555489173671.88,-45.69,0,0,0,0,0
1555489173687.5,-47.14,0,0,0,0,0
1555489173703.12,-47.09,0,0,0,0,0
1555489173718.75,-44.63,0,0,0,0,0
1555489173734.38,-40.28,0,0,0,0,0
1555489173750,-35.71,0,0,0,0,0
1555489173765.62,-32.76,0,0,0,0,0
1555489173781.25,-32.46,0,0,0,0,0
1555489173796.88,-34.55,0,0,0,0,0
1555489173812.5,-37.77,0,0,0,0,0
1555489173828.12,-40.61,0,0,0,0,0
1555489173843.75,-42.28,0,0,0,0,0
1555489173859.38,-43.21,0,0,0,0,0
1555489173875,-44.94,0,0,0,0,0
1555489173890.62,-49.53,0,0,0,0,0
1555489173906.25,-58.75,0,0,0,0,0
1555489173921.88,-73.4,0,0,0,0,0
1555489173937.5,-92.95,0,0,0,0,0
1555489173953.12,-115.37,0,0,0,0,0
1555489173968.75,-137.42,0,0,0,0,0
1555489173984.38,-155.06,0,0,0,0,0
1555489174000,-164.29,0,0,0,0,0
1555489174015.62,-162.18,0,0,0,0,0
1555489174031.25,-147.72,0,0,0,0,0
1555489174046.88,-122.39,0,0,0,0,0
1555489174062.5,-89.76,0,0,0,0,0
1555489174078.12,-54.4,0,0,0,0,0
1555489174093.75,-20.48,0,0,0,0,0
1555489174109.38,9.25,0,0,0,0,0
1555489174125,33.55,0,0,0,0,0
1555489174140.62,52.13,0,0,0,0,0
1555489174156.25,64.75,0,0,0,0,0
1555489174171.88,70.88,0,0,0,0,0
1555489174187.5,70.04,0,0,0,0,0
1555489174203.12,62.67,0,0,0,0,0
1555489174218.75,50.67,0,0,0,0,0
1555489174234.38,37.27,0,0,0,0,0
1555489174250,25.94,0,0,0,0,0
1555489174265.62,19.06,0,0,0,0,0
1555489174281.25,17.05,0,0,0,0,0
1555489174296.88,18.4,0,0,0,0,0
1555489174312.5,20.6,0,0,0,0,0
1555489174328.12,21.42,0,0,0,0,0
1555489174343.75,19.8,0,0,0,0,0
1555489174359.38,16.09,0,0,0,0,0
1555489174375,11.48,0,0,0,0,0
1555489174390.62,7.18,0,0,0,0,0
1555489174406.25,3.8,0,0,0,0,0
1555489174421.88,1.21,0,0,0,0,0
1555489174437.5,-1.23,0,0,0,0,0
1555489174453.12,-4.27,0,0,0,0,0
1555489174468.75,-8.55,0,0,0,0,0
1555489174484.38,-14.56,0,0,0,0,0
1555489174500,-22.59,0,0,0,0,0
1555489174515.62,-32.59,0,0,0,0,0
1555489174531.25,-43.88,0,0,0,0,0
1555489174546.88,-54.77,0,0,0,0,0
1555489174562.5,-62.78,0,0,0,0,0
1555489174578.12,-65.16,0,0,0,0,0
1555489174593.75,-59.81,0,0,0,0,0
1555489174609.38,-46.02,0,0,0,0,0
1555489174625,-24.87,0,0,0,0,0
1555489174640.62,1.11,0,0,0,0,0
1555489174656.25,28.76,0,0,0,0,0
1555489174671.88,55.03,0,0,0,0,0
1555489174687.5,77.72,0,0,0,0,0
1555489174703.12,95.44,0,0,0,0,0
1555489174718.75,107.52,0,0,0,0,0
1555489174734.38,113.8,0,0,0,0,0
1555489174750,114.49,0,0,0,0,0
1555489174765.62,110.21,0,0,0,0,0
1555489174781.25,102.07,0,0,0,0,0
1555489174796.88,91.58,0,0,0,0,0
1555489174812.5,80.43,0,0,0,0,0
1555489174828.12,70.3,0,0,0,0,0
1555489174843.75,62.44,0,0,0,0,0
1555489174859.38,57.47,0,0,0,0,0
1555489174875,55.23,0,0,0,0,0
1555489174890.62,54.78,0,0,0,0,0
1555489174906.25,54.65,0,0,0,0,0
1555489174921.88,53.28,0,0,0,0,0
1555489174937.5,49.53,0,0,0,0,0
1555489174953.12,43.08,0,0,0,0,0
1555489174968.75,34.45,0,0,0,0,0
1555489174984.38,24.66,0,0,0,0,0
1555489175000,14.76,0,0,0,0,0
1555489175015.62,5.26,0,0,0,0,0
1555489175031.25,-3.84,0,0,0,0,0
1555489175046.88,-13.02,0,0,0,0,0
1555489175062.5,-22.71,0,0,0,0,0
1555489175078.12,-33.17,0,0,0,0,0
1555489175093.75,-44.45,0,0,0,0,0
1555489175109.38,-56.48,0,0,0,0,0
1555489175125,-68.97,0,0,0,0,0
1555489175140.62,-81.02,0,0,0,0,0
1555489175156.25,-90.83,0,0,0,0,0
1555489175171.88,-95.66,0,0,0,0,0
1555489175187.5,-92.45,0,0,0,0,0
1555489175203.12,-79.06,0,0,0,0,0
1555489175218.75,-55.41,0,0,0,0,0
1555489175234.38,-23.96,0,0,0,0,0
1555489175250,10.88,0,0,0,0,0
1555489175265.62,44.17,0,0,0,0,0
1555489175281.25,72.04,0,0,0,0,0
1555489175296.88,92.47,0,0,0,0,0
1555489175312.5,105.37,0,0,0,0,0
1555489175328.12,111.84,0,0,0,0,0
1555489175343.75,113.47,0,0,0,0,0
1555489175359.38,111.82,0,0,0,0,0
1555489175375,108.3,0,0,0,0,0
1555489175390.62,104.23,0,0,0,0,0
1555489175406.25,100.71,0,0,0,0,0
1555489175421.88,98.49,0,0,0,0,0
1555489175437.5,97.73,0,0,0,0,0
1555489175453.12,98.17,0,0,0,0,0
1555489175468.75,99.31,0,0,0,0,0
1555489175484.38,100.69,0,0,0,0,0
1555489175500,101.89,0,0,0,0,0
1555489175515.62,102.39,0,0,0,0,0
1555489175531.25,101.45,0,0,0,0,0
1555489175546.88,98.21,0,0,0,0,0
1555489175562.5,92.18,0,0,0,0,0
1555489175578.12,83.57,0,0,0,0,0
1555489175593.75,73.42,0,0,0,0,0
1555489175609.38,63.2,0,0,0,0,0
1555489175625,54.16,0,0,0,0,0
1555489175640.62,46.74,0,0,0,0,0
1555489175656.25,40.39,0,0,0,0,0
1555489175671.88,33.52,0,0,0,0,0
1555489175687.5,23.83,0,0,0,0,0
1555489175703.12,8.72,0,0,0,0,0
1555489175718.75,-14.26,0,0,0,0,0
1555489175734.38,-47.01,0,0,0,0,0
1555489175750,-90.01,0,0,0,0,0
1555489175765.62,-141.28,0,0,0,0,0
1555489175781.25,-195.8,0,0,0,0,0
1555489175796.88,-246.24,0,0,0,0,0
1555489175812.5,-285.22,0,0,0,0,0
1555489175828.12,-308.19,0,0,0,0,0
1555489175843.75,-315.32,0,0,0,0,0
1555489175859.38,-311.31,0,0,0,0,0
1555489175875,-303.11,0,0,0,0,0
1555489175890.62,-296.63,0,0,0,0,0
1555489175906.25,-294.15,0,0,0,0,0
1555489175921.88,-293.85,0,0,0,0,0
1555489175937.5,-291.21,0,0,0,0,0
1555489175953.12,-281.68,0,0,0,0,0
1555489175968.75,-262.88,0,0,0,0,0
1555489175984.38,-235.54,0,0,0,0,0
1555489176000,-202.84,0,0,0,0,0
1555489176015.62,-168.81,0,0,0,0,0
1555489176031.25,-136.52,0,0,0,0,0
1555489176046.88,-106.99,0,0,0,0,0
1555489176062.5,-79.15,0,0,0,0,0
1555489176078.12,-50.6,0,0,0,0,0
1555489176093.75,-19.04,0,0,0,0,0
1555489176109.38,16.14,0,0,0,0,0
1555489176125,53.01,0,0,0,0,0
1555489176140.62,87.3,0,0,0,0,0
1555489176156.25,113.87,0,0,0,0,0
1555489176171.88,128.72,0,0,0,0,0
1555489176187.5,130.37,0,0,0,0,0
1555489176203.12,120.05,0,0,0,0,0
1555489176218.75,100.92,0,0,0,0,0
1555489176234.38,76.9,0,0,0,0,0
1555489176250,51.49,0,0,0,0,0
1555489176265.62,27.36,0,0,0,0,0
1555489176281.25,6.06,0,0,0,0,0
1555489176296.88,-11.88,0,0,0,0,0
1555489176312.5,-26.62,0,0,0,0,0
1555489176328.12,-38.53,0,0,0,0,0
1555489176343.75,-47.48,0,0,0,0,0
1555489176359.38,-52.22,0,0,0,0,0
1555489176375,-50.47,0,0,0,0,0
1555489176390.62,-39.8,0,0,0,0,0
1555489176406.25,-18.93,0,0,0,0,0
1555489176421.88,11.07,0,0,0,0,0
1555489176437.5,46.66,0,0,0,0,0
1555489176453.12,82.77,0,0,0,0,0
1555489176468.75,114.35,0,0,0,0,0
1555489176484.38,137.89,0,0,0,0,0
1555489176500,152.05,0,0,0,0,0
1555489176515.62,157.2,0,0,0,0,0
1555489176531.25,154.41,0,0,0,0,0
1555489176546.88,144.96,0,0,0,0,0
1555489176562.5,130.36,0,0,0,0,0
1555489176578.12,112.99,0,0,0,0,0
1555489176593.75,96.66,0,0,0,0,0
1555489176609.38,86.13,0,0,0,0,0
1555489176625,85.73,0,0,0,0,0
1555489176640.62,97.49,0,0,0,0,0
1555489176656.25,120.02,0,0,0,0,0
1555489176671.88,148.87,0,0,0,0,0
1555489176687.5,178.22,0,0,0,0,0
1555489176703.12,203.15,0,0,0,0,0
1555489176718.75,220.87,0,0,0,0,0
1555489176734.38,230.58,0,0,0,0,0
1555489176750,232.47,0,0,0,0,0
1555489176765.62,226.84,0,0,0,0,0
1555489176781.25,214.28,0,0,0,0,0
1555489176796.88,196.48,0,0,0,0,0
1555489176812.5,176.52,0,0,0,0,0
1555489176828.12,158.19,0,0,0,0,0
1555489176843.75,144.39,0,0,0,0,0
1555489176859.38,135.99,0,0,0,0,0
1555489176875,132.14,0,0,0,0,0
1555489176890.62,131.5,0,0,0,0,0
1555489176906.25,133.65,0,0,0,0,0
1555489176921.88,139.14,0,0,0,0,0
1555489176937.5,148.21,0,0,0,0,0
1555489176953.12,158.65,0,0,0,0,0
1555489176968.75,165.56,0,0,0,0,0
1555489176984.38,163.04,0,0,0,0,0
1555489177000,147.49,0,0,0,0,0
1555489177015.62,120.39,0,0,0,0,0
1555489177031.25,88.19,0,0,0,0,0
1555489177046.88,59.5,0,0,0,0,0
1555489177062.5,40.97,0,0,0,0,0
1555489177078.12,34.5,0,0,0,0,0
1555489177093.75,36.98,0,0,0,0,0
1555489177109.38,42.51,0,0,0,0,0
1555489177125,45.42,0,0,0,0,0
1555489177140.62,41.98,0,0,0,0,0
1555489177156.25,30.66,0,0,0,0,0
1555489177171.88,11.59,0,0,0,0,0
1555489177187.5,-13.84,0,0,0,0,0
1555489177203.12,-42.28,0,0,0,0,0
1555489177218.75,-67.92,0,0,0,0,0
1555489177234.38,-83.6,0,0,0,0,0
1555489177250,-83.35,0,0,0,0,0
1555489177265.62,-65.92,0,0,0,0,0
1555489177281.25,-36.97,0,0,0,0,0
1555489177296.88,-7.88,0,0,0,0,0
1555489177312.5,9.04,0,0,0,0,0
1555489177328.12,6.73,0,0,0,0,0
1555489177343.75,-12.82,0,0,0,0,0
1555489177359.38,-39.58,0,0,0,0,0
1555489177375,-60.66,0,0,0,0,0
1555489177390.62,-67.08,0,0,0,0,0
1555489177406.25,-57.97,0,0,0,0,0
1555489177421.88,-40.3,0,0,0,0,0
1555489177437.5,-24.27,0,0,0,0,0
1555489177453.12,-17.65,0,0,0,0,0
1555489177468.75,-22.63,0,0,0,0,0
1555489177484.38,-36.28,0,0,0,0,0
1555489177500,-53.92,0,0,0,0,0
1555489177515.62,-72.54,0,0,0,0,0
1555489177531.25,-92.53,0,0,0,0,0
1555489177546.88,-117,0,0,0,0,0
1555489177562.5,-149.25,0,0,0,0,0
1555489177578.12,-190.05,0,0,0,0,0
1555489177593.75,-236.04,0,0,0,0,0
1555489177609.38,-280.02,0,0,0,0,0
1555489177625,-312.84,0,0,0,0,0
1555489177640.62,-326.29,0,0,0,0,0
1555489177656.25,-315.28,0,0,0,0,0
1555489177671.88,-279.04,0,0,0,0,0
1555489177687.5,-221.14,0,0,0,0,0
1555489177703.12,-148.47,0,0,0,0,0
1555489177718.75,-69.82,0,0,0,0,0
1555489177734.38,4.94,0,0,0,0,0
1555489177750,65.58,0,0,0,0,0
1555489177765.62,102.88,0,0,0,0,0
1555489177781.25,110.63,0,0,0,0,0
1555489177796.88,87.98,0,0,0,0,0
1555489177812.5,41.01,0,0,0,0,0
1555489177828.12,-17.98,0,0,0,0,0
1555489177843.75,-73.6,0,0,0,0,0
1555489177859.38,-111.93,0,0,0,0,0
1555489177875,-124.38,0,0,0,0,0
1555489177890.62,-108.82,0,0,0,0,0
1555489177906.25,-68.32,0,0,0,0,0
1555489177921.88,-9.11,0,0,0,0,0
1555489177937.5,60.96,0,0,0,0,0
1555489177953.12,132.73,0,0,0,0,0
1555489177968.75,195.75,0,0,0,0,0
1555489177984.38,239.45,0,0,0,0,0
1555489178000,255.26,0,0,0,0,0
1555489178015.62,239.19,0,0,0,0,0
1555489178031.25,192.85,0,0,0,0,0
1555489178046.88,123.05,0,0,0,0,0
1555489178062.5,39.92,0,0,0,0,0
1555489178078.12,-45.27,0,0,0,0,0
1555489178093.75,-121.6,0,0,0,0,0
1555489178109.38,-179.35,0,0,0,0,0
1555489178125,-210.43,0,0,0,0,0
1555489178140.62,-209.94,0,0,0,0,0
1555489178156.25,-178.33,0,0,0,0,0
1555489178171.88,-122.93,0,0,0,0,0
1555489178187.5,-57.22,0,0,0,0,0
1555489178203.12,2.37,0,0,0,0,0
1555489178218.75,41.34,0,0,0,0,0
1555489178234.38,51.42,0,0,0,0,0
1555489178250,32.67,0,0,0,0,0
1555489178265.62,-7.55,0,0,0,0,0
1555489178281.25,-57.53,0,0,0,0,0
1555489178296.88,-104.89,0,0,0,0,0
1555489178312.5,-139.72,0,0,0,0,0
1555489178328.12,-155.75,0,0,0,0,0
1555489178343.75,-150.3,0,0,0,0,0
1555489178359.38,-123.21,0,0,0,0,0
1555489178375,-76.02,0,0,0,0,0
1555489178390.62,-12.2,0,0,0,0,0
1555489178406.25,62.07,0,0,0,0,0
1555489178421.88,137.07,0,0,0,0,0
1555489178437.5,200.56,0,0,0,0,0
1555489178453.12,240.29,0,0,0,0,0
1555489178468.75,247.6,0,0,0,0,0
1555489178484.38,220.08,0,0,0,0,0
1555489178500,162.82,0,0,0,0,0
1555489178515.62,87.39,0,0,0,0,0
1555489178531.25,8.67,0,0,0,0,0
1555489178546.88,-58.88,0,0,0,0,0
1555489178562.5,-104.2,0,0,0,0,0
1555489178578.12,-120.86,0,0,0,0,0
1555489178593.75,-107.44,0,0,0,0,0
1555489178609.38,-67.12,0,0,0,0,0
1555489178625,-7.45,0,0,0,0,0
1555489178640.62,60.52,0,0,0,0,0
1555489178656.25,123.83,0,0,0,0,0
1555489178671.88,169.96,0,0,0,0,0
1555489178687.5,189.39,0,0,0,0,0
1555489178703.12,177.53,0,0,0,0,0
1555489178718.75,135.2,0,0,0,0,0
1555489178734.38,68.33,0,0,0,0,0
1555489178750,-12.82,0,0,0,0,0
1555489178765.62,-95.42,0,0,0,0,0
1555489178781.25,-165.78,0,0,0,0,0
1555489178796.88,-211.7,0,0,0,0,0
1555489178812.5,-224.82,0,0,0,0,0
1555489178828.12,-202.52,0,0,0,0,0
1555489178843.75,-149.14,0,0,0,0,0
1555489178859.38,-75.74,0,0,0,0,0
1555489178875,2.11,0,0,0,0,0
1555489178890.62,68,0,0,0,0,0
1555489178906.25,108.44,0,0,0,0,0
1555489178921.88,115.99,0,0,0,0,0
1555489178937.5,90.68,0,0,0,0,0
1555489178953.12,39.14,0,0,0,0,0
1555489178968.75,-27.03,0,0,0,0,0
1555489178984.38,-94.38,0,0,0,0,0
1555489179000,-150.44,0,0,0,0,0
1555489179015.62,-186.04,0,0,0,0,0
1555489179031.25,-196.13,0,0,0,0,0
1555489179046.88,-179.71,0,0,0,0,0
1555489179062.5,-138.86,0,0,0,0,0
1555489179078.12,-78.25,0,0,0,0,0
1555489179093.75,-5.17,0,0,0,0,0
1555489179109.38,70.44,0,0,0,0,0
1555489179125,136.71,0,0,0,0,0
1555489179140.62,181.94,0,0,0,0,0
1555489179156.25,197.39,0,0,0,0,0
1555489179171.88,180.1,0,0,0,0,0
1555489179187.5,133.66,0,0,0,0,0
1555489179203.12,67.44,0,0,0,0,0
1555489179218.75,-6.19,0,0,0,0,0
1555489179234.38,-75.08,0,0,0,0,0
1555489179250,-129.69,0,0,0,0,0
1555489179265.62,-163.82,0,0,0,0,0
1555489179281.25,-174.24,0,0,0,0,0
1555489179296.88,-159.98,0,0,0,0,0
1555489179312.5,-122.4,0,0,0,0,0
1555489179328.12,-66.07,0,0,0,0,0
1555489179343.75,0.39,0,0,0,0,0
1555489179359.38,64.74,0,0,0,0,0
1555489179375,113.78,0,0,0,0,0
1555489179390.62,137.42,0,0,0,0,0
1555489179406.25,132.08,0,0,0,0,0
1555489179421.88,101.55,0,0,0,0,0
1555489179437.5,55.37,0,0,0,0,0
1555489179453.12,4.99,0,0,0,0,0
1555489179468.75,-39.79,0,0,0,0,0
1555489179484.38,-72.63,0,0,0,0,0
1555489179500,-90.1,0,0,0,0,0
1555489179515.62,-89.96,0,0,0,0,0
1555489179531.25,-70.17,0,0,0,0,0
1555489179546.88,-30.06,0,0,0,0,0
1555489179562.5,27.4,0,0,0,0,0
1555489179578.12,93.64,0,0,0,0,0
1555489179593.75,155.39,0,0,0,0,0
1555489179609.38,198.4,0,0,0,0,0
1555489179625,212.22,0,0,0,0,0
1555489179640.62,193.42,0,0,0,0,0
1555489179656.25,145.99,0,0,0,0,0
1555489179671.88,78.95,0,0,0,0,0
1555489179687.5,3.25,0,0,0,0,0
1555489179703.12,-70.75,0,0,0,0,0
1555489179718.75,-134.18,0,0,0,0,0
1555489179734.38,-179.67,0,0,0,0,0
1555489179750,-201.51,0,0,0,0,0
1555489179765.62,-195.75,0,0,0,0,0
1555489179781.25,-161.71,0,0,0,0,0
1555489179796.88,-102.9,0,0,0,0,0
1555489179812.5,-27.65,0,0,0,0,0
1555489179828.12,51.93,0,0,0,0,0
1555489179843.75,122.34,0,0,0,0,0
1555489179859.38,171.72,0,0,0,0,0
1555489179875,192.26,0,0,0,0,0
1555489179890.62,181.43,0,0,0,0,0
1555489179906.25,142.18,0,0,0,0,0
1555489179921.88,81.49,0,0,0,0,0
1555489179937.5,9.06,0,0,0,0,0
1555489179953.12,-64.3,0,0,0,0,0
1555489179968.75,-128.04,0,0,0,0,0
1555489179984.38,-172.67,0,0,0,0,0
1555489180000,-190.83,0,0,0,0,0
1555489180015.62,-178.44,0,0,0,0,0
1555489180031.25,-135.9,0,0,0,0,0
1555489180046.88,-69.26,0,0,0,0,0
1555489180062.5,9.72,0,0,0,0,0
1555489180078.12,85.43,0,0,0,0,0
1555489180093.75,142.3,0,0,0,0,0
1555489180109.38,169.33,0,0,0,0,0
1555489180125,163.27,0,0,0,0,0
1555489180140.62,129.14,0,0,0,0,0
1555489180156.25,78.08,0,0,0,0,0
1555489180171.88,23.23,0,0,0,0,0
1555489180187.5,-23.93,0,0,0,0,0
1555489180203.12,-55.47,0,0,0,0,0
1555489180218.75,-67.17,0,0,0,0,0
1555489180234.38,-57.89,0,0,0,0,0
1555489180250,-29.26,0,0,0,0,0
1555489180265.62,13.61,0,0,0,0,0
1555489180281.25,61.35,0,0,0,0,0
1555489180296.88,101.58,0,0,0,0,0
1555489180312.5,122.59,0,0,0,0,0
1555489180328.12,118.03,0,0,0,0,0
1555489180343.75,89.93,0,0,0,0,0
1555489180359.38,47.73,0,0,0,0,0
1555489180375,3.21,0,0,0,0,0
1555489180390.62,-35.03,0,0,0,0,0
1555489180406.25,-64.46,0,0,0,0,0
1555489180421.88,-87.35,0,0,0,0,0
1555489180437.5,-106.6,0,0,0,0,0
1555489180453.12,-121.83,0,0,0,0,0
1555489180468.75,-128.22,0,0,0,0,0
1555489180484.38,-118.97,0,0,0,0,0
1555489180500,-90.18,0,0,0,0,0
1555489180515.62,-45.07,0,0,0,0,0
1555489180531.25,5.4,0,0,0,0,0
1555489180546.88,46.34,0,0,0,0,0
1555489180562.5,65.49,0,0,0,0,0
1555489180578.12,59.15,0,0,0,0,0
1555489180593.75,33.86,0,0,0,0,0
1555489180609.38,2.88,0,0,0,0,0
1555489180625,-20.52,0,0,0,0,0
1555489180640.62,-28.95,0,0,0,0,0
1555489180656.25,-22.73,0,0,0,0,0
1555489180671.88,-7.32,0,0,0,0,0
1555489180687.5,11.02,0,0,0,0,0
1555489180703.12,29.23,0,0,0,0,0
1555489180718.75,47.58,0,0,0,0,0
1555489180734.38,66.97,0,0,0,0,0
1555489180750,85.42,0,0,0,0,0
1555489180765.62,96.74,0,0,0,0,0
1555489180781.25,93.08,0,0,0,0,0
1555489180796.88,69.89,0,0,0,0,0
1555489180812.5,30.16,0,0,0,0,0
1555489180828.12,-15.69,0,0,0,0,0
1555489180843.75,-54.08,0,0,0,0,0
1555489180859.38,-74.27,0,0,0,0,0
1555489180875,-72.76,0,0,0,0,0
1555489180890.62,-53.34,0,0,0,0,0
1555489180906.25,-23.77,0,0,0,0,0
1555489180921.88,8.48,0,0,0,0,0
1555489180937.5,38.92,0,0,0,0,0
1555489180953.12,65.64,0,0,0,0,0
1555489180968.75,87.15,0,0,0,0,0
1555489180984.38,100.31,0,0,0,0,0
1555489181000,99.92,0,0,0,0,0
1555489181015.62,80.98,0,0,0,0,0
1555489181031.25,42.25,0,0,0,0,0
1555489181046.88,-11.31,0,0,0,0,0
1555489181062.5,-69.27,0,0,0,0,0
1555489181078.12,-119.34,0,0,0,0,0
1555489181093.75,-152.2,0,0,0,0,0
1555489181109.38,-164.73,0,0,0,0,0
1555489181125,-159.58,0,0,0,0,0
1555489181140.62,-142.29,0,0,0,0,0
1555489181156.25,-117.81,0,0,0,0,0
1555489181171.88,-88.65,0,0,0,0,0
1555489181187.5,-55.61,0,0,0,0,0
1555489181203.12,-19.21,0,0,0,0,0
1555489181218.75,18.58,0,0,0,0,0
1555489181234.38,54.03,0,0,0,0,0
1555489181250,82.29,0,0,0,0,0
1555489181265.62,98.89,0,0,0,0,0
1555489181281.25,101.16,0,0,0,0,0
1555489181296.88,89.09,0,0,0,0,0
1555489181312.5,66.13,0,0,0,0,0
1555489181328.12,38.51,0,0,0,0,0
1555489181343.75,13.68,0,0,0,0,0
1555489181359.38,-1.82,0,0,0,0,0
1555489181375,-4.63,0,0,0,0,0
1555489181390.62,4.11,0,0,0,0,0
1555489181406.25,19.73,0,0,0,0,0
1555489181421.88,36.76,0,0,0,0,0
1555489181437.5,52.03,0,0,0,0,0
1555489181453.12,66.17,0,0,0,0,0
1555489181468.75,81.76,0,0,0,0,0
1555489181484.38,99.9,0,0,0,0,0
1555489181500,117.23,0,0,0,0,0
1555489181515.62,126.61,0,0,0,0,0
1555489181531.25,121.31,0,0,0,0,0
1555489181546.88,99.79,0,0,0,0,0
1555489181562.5,67.28,0,0,0,0,0
1555489181578.12,33.29,0,0,0,0,0
1555489181593.75,6.57,0,0,0,0,0
1555489181609.38,-9.26,0,0,0,0,0
1555489181625,-15.83,0,0,0,0,0
1555489181640.62,-17.15,0,0,0,0,0
1555489181656.25,-15.49,0,0,0,0,0
1555489181671.88,-9.71,0,0,0,0,0
1555489181687.5,3.2,0,0,0,0,0
1555489181703.12,24.46,0,0,0,0,0
1555489181718.75,50.57,0,0,0,0,0
1555489181734.38,73.49,0,0,0,0,0
1555489181750,83.34,0,0,0,0,0
1555489181765.62,73.16,0,0,0,0,0
1555489181781.25,42.1,0,0,0,0,0
1555489181796.88,-3.99,0,0,0,0,0
1555489181812.5,-54.51,0,0,0,0,0
1555489181828.12,-97.97,0,0,0,0,0
1555489181843.75,-125.79,0,0,0,0,0
1555489181859.38,-134.13,0,0,0,0,0
1555489181875,-123.85,0,0,0,0,0
1555489181890.62,-99.23,0,0,0,0,0
1555489181906.25,-66.05,0,0,0,0,0
1555489181921.88,-30.01,0,0,0,0,0
1555489181937.5,3.63,0,0,0,0,0
1555489181953.12,29.82,0,0,0,0,0
1555489181968.75,43.49,0,0,0,0,0
1555489181984.38,40.28,0,0,0,0,0
1555489182000,18.42,0,0,0,0,0
1555489182015.62,-18.68,0,0,0,0,0
1555489182031.25,-62.04,0,0,0,0,0
1555489182046.88,-99.69,0,0,0,0,0
1555489182062.5,-121.76,0,0,0,0,0
1555489182078.12,-124.68,0,0,0,0,0
1555489182093.75,-112.12,0,0,0,0,0
1555489182109.38,-92.15,0,0,0,0,0
1555489182125,-72.58,0,0,0,0,0
1555489182140.62,-57.53,0,0,0,0,0
1555489182156.25,-46.21,0,0,0,0,0
1555489182171.88,-35.07,0,0,0,0,0
1555489182187.5,-21.01,0,0,0,0,0
1555489182203.12,-4.33,0,0,0,0,0
1555489182218.75,10.03,0,0,0,0,0
1555489182234.38,14.35,0,0,0,0,0
1555489182250,2.12,0,0,0,0,0
1555489182265.62,-28.07,0,0,0,0,0
1555489182281.25,-70.36,0,0,0,0,0
1555489182296.88,-112.53,0,0,0,0,0
1555489182312.5,-140.53,0,0,0,0,0
1555489182328.12,-143.37,0,0,0,0,0
1555489182343.75,-117.75,0,0,0,0,0
1555489182359.38,-69.29,0,0,0,0,0
1555489182375,-9.93,0,0,0,0,0
1555489182390.62,46.93,0,0,0,0,0
1555489182406.25,91.13,0,0,0,0,0
1555489182421.88,117.39,0,0,0,0,0
1555489182437.5,124.74,0,0,0,0,0
1555489182453.12,114.58,0,0,0,0,0
1555489182468.75,89.65,0,0,0,0,0
1555489182484.38,54.9,0,0,0,0,0
1555489182500,17.57,0,0,0,0,0
1555489182515.62,-13.83,0,0,0,0,0
1555489182531.25,-32.38,0,0,0,0,0
1555489182546.88,-35.6,0,0,0,0,0
1555489182562.5,-26.22,0,0,0,0,0
1555489182578.12,-10.18,0,0,0,0,0
1555489182593.75,7.24,0,0,0,0,0
1555489182609.38,23.9,0,0,0,0,0
1555489182625,40.57,0,0,0,0,0
1555489182640.62,57.63,0,0,0,0,0
1555489182656.25,72.52,0,0,0,0,0
1555489182671.88,79.37,0,0,0,0,0
1555489182687.5,71.92,0,0,0,0,0
1555489182703.12,47.78,0,0,0,0,0
1555489182718.75,10.64,0,0,0,0,0
1555489182734.38,-31.15,0,0,0,0,0
1555489182750,-68.55,0,0,0,0,0
1555489182765.62,-96.26,0,0,0,0,0
1555489182781.25,-114.06,0,0,0,0,0
1555489182796.88,-124.64,0,0,0,0,0
1555489182812.5,-130.66,0,0,0,0,0
1555489182828.12,-132.64,0,0,0,0,0
1555489182843.75,-129.37,0,0,0,0,0
1555489182859.38,-120.04,0,0,0,0,0
1555489182875,-106.06,0,0,0,0,0
1555489182890.62,-90.59,0,0,0,0,0
1555489182906.25,-76.14,0,0,0,0,0
1555489182921.88,-62.72,0,0,0,0,0
1555489182937.5,-47.79,0,0,0,0,0
1555489182953.12,-28.23,0,0,0,0,0
1555489182968.75,-3.18,0,0,0,0,0
1555489182984.38,25.01,0,0,0,0,0
1555489183000,51.84,0,0,0,0,0
1555489183015.62,73.09,0,0,0,0,0
1555489183031.25,86.72,0,0,0,0,0
1555489183046.88,92.96,0,0,0,0,0
1555489183062.5,92.94,0,0,0,0,0
1555489183078.12,86.91,0,0,0,0,0
1555489183093.75,74.33,0,0,0,0,0
1555489183109.38,55.39,0,0,0,0,0
1555489183125,32.98,0,0,0,0,0
1555489183140.62,12.56,0,0,0,0,0
1555489183156.25,0.17,0,0,0,0,0
1555489183171.88,-0.72,0,0,0,0,0
1555489183187.5,8.76,0,0,0,0,0
1555489183203.12,23.37,0,0,0,0,0
1555489183218.75,36.2,0,0,0,0,0
1555489183234.38,42.23,0,0,0,0,0
1555489183250,40.39,0,0,0,0,0
1555489183265.62,33.12,0,0,0,0,0
1555489183281.25,24.4,0,0,0,0,0
1555489183296.88,17.08,0,0,0,0,0
1555489183312.5,11.48,0,0,0,0,0
1555489183328.12,5.53,0,0,0,0,0
1555489183343.75,-3.63,0,0,0,0,0
1555489183359.38,-17.8,0,0,0,0,0
1555489183375,-36.62,0,0,0,0,0
1555489183390.62,-57.67,0,0,0,0,0
1555489183406.25,-77.53,0,0,0,0,0
1555489183421.88,-92.97,0,0,0,0,0
1555489183437.5,-101.74,0,0,0,0,0
1555489183453.12,-102.68,0,0,0,0,0
1555489183468.75,-95.45,0,0,0,0,0
1555489183484.38,-80.51,0,0,0,0,0
1555489183500,-59.27,0,0,0,0,0
1555489183515.62,-34.37,0,0,0,0,0
1555489183531.25,-9.51,0,0,0,0,0
1555489183546.88,11.24,0,0,0,0,0
1555489183562.5,24.72,0,0,0,0,0
1555489183578.12,29.76,0,0,0,0,0
1555489183593.75,27.72,0,0,0,0,0
1555489183609.38,21.68,0,0,0,0,0
1555489183625,14.89,0,0,0,0,0
1555489183640.62,9.11,0,0,0,0,0
1555489183656.25,3.71,0,0,0,0,0
1555489183671.88,-3.76,0,0,0,0,0
1555489183687.5,-15.92,0,0,0,0,0
1555489183703.12,-33.66,0,0,0,0,0
1555489183718.75,-54.95,0,0,0,0,0
1555489183734.38,-75.04,0,0,0,0,0
1555489183750,-87.8,0,0,0,0,0
1555489183765.62,-87.75,0,0,0,0,0
1555489183781.25,-71.93,0,0,0,0,0
1555489183796.88,-41.16,0,0,0,0,0
1555489183812.5,-0.31,0,0,0,0,0
1555489183828.12,42.82,0,0,0,0,0
1555489183843.75,79.35,0,0,0,0,0
1555489183859.38,101.89,0,0,0,0,0
1555489183875,106.75,0,0,0,0,0
1555489183890.62,95.28,0,0,0,0,0
1555489183906.25,73.29,0,0,0,0,0
1555489183921.88,49.13,0,0,0,0,0
1555489183937.5,30.97,0,0,0,0,0
1555489183953.12,24.56,0,0,0,0,0
1555489183968.75,31.97,0,0,0,0,0
1555489183984.38,51.39,0,0,0,0,0
1555489184000,77.88,0,0,0,0,0
1555489184015.62,104.78,0,0,0,0,0
1555489184031.25,125.7,0,0,0,0,0
1555489184046.88,136.58,0,0,0,0,0
1555489184062.5,137.07,0,0,0,0,0
1555489184078.12,130.71,0,0,0,0,0
1555489184093.75,123.13,0,0,0,0,0
1555489184109.38,119.27,0,0,0,0,0
1555489184125,120.72,0,0,0,0,0
1555489184140.62,125.01,0,0,0,0,0
1555489184156.25,127.11,0,0,0,0,0
1555489184171.88,122.3,0,0,0,0,0
1555489184187.5,108.72,0,0,0,0,0
1555489184203.12,88.04,0,0,0,0,0
1555489184218.75,64.1,0,0,0,0,0
1555489184234.38,40.65,0,0,0,0,0
1555489184250,19.66,0,0,0,0,0
1555489184265.62,1.26,0,0,0,0,0
1555489184281.25,-15.26,0,0,0,0,0
1555489184296.88,-30.13,0,0,0,0,0
1555489184312.5,-42.7,0,0,0,0,0
1555489184328.12,-51.81,0,0,0,0,0
1555489184343.75,-56.61,0,0,0,0,0
1555489184359.38,-57.26,0,0,0,0,0
1555489184375,-55.2,0,0,0,0,0
1555489184390.62,-52.56,0,0,0,0,0
1555489184406.25,-51.38,0,0,0,0,0
1555489184421.88,-52.9,0,0,0,0,0
1555489184437.5,-57.18,0,0,0,0,0
1555489184453.12,-63.31,0,0,0,0,0
1555489184468.75,-69.97,0,0,0,0,0
1555489184484.38,-76.15,0,0,0,0,0
1555489184500,-81.73,0,0,0,0,0
1555489184515.62,-87.34,0,0,0,0,0
1555489184531.25,-93.92,0,0,0,0,0
1555489184546.88,-101.67,0,0,0,0,0
1555489184562.5,-109.49,0,0,0,0,0
1555489184578.12,-114.77,0,0,0,0,0
1555489184593.75,-114.32,0,0,0,0,0
1555489184609.38,-105.5,0,0,0,0,0
1555489184625,-87.66,0,0,0,0,0
1555489184640.62,-62.61,0,0,0,0,0
1555489184656.25,-34.1,0,0,0,0,0
1555489184671.88,-6.59,0,0,0,0,0
1555489184687.5,16.32,0,0,0,0,0
1555489184703.12,32.89,0,0,0,0,0
1555489184718.75,43.33,0,0,0,0,0
1555489184734.38,48.99,0,0,0,0,0
1555489184750,51.33,0,0,0,0,0
1555489184765.62,51.18,0,0,0,0,0
1555489184781.25,48.56,0,0,0,0,0
1555489184796.88,43.39,0,0,0,0,0
1555489184812.5,36.04,0,0,0,0,0
1555489184828.12,27.82,0,0,0,0,0
1555489184843.75,20.78,0,0,0,0,0
1555489184859.38,16.86,0,0,0,0,0
1555489184875,17.15,0,0,0,0,0
1555489184890.62,21.29,0,0,0,0,0
1555489184906.25,27.76,0,0,0,0,0
1555489184921.88,34.39,0,0,0,0,0
1555489184937.5,39.39,0,0,0,0,0
1555489184953.12,41.73,0,0,0,0,0
1555489184968.75,41.38,0,0,0,0,0
1555489184984.38,38.78,0,0,0,0,0
1555489185000,34.42,0,0,0,0,0
1555489185015.62,28.67,0,0,0,0,0
1555489185031.25,21.62,0,0,0,0,0
1555489185046.88,13.42,0,0,0,0,0
1555489185062.5,4.22,0,0,0,0,0
1555489185078.12,-5.79,0,0,0,0,0
1555489185093.75,-16.69,0,0,0,0,0
1555489185109.38,-28.56,0,0,0,0,0
1555489185125,-41.3,0,0,0,0,0
1555489185140.62,-54.22,0,0,0,0,0
1555489185156.25,-65.64,0,0,0,0,0
1555489185171.88,-73.25,0,0,0,0,0
1555489185187.5,-74.8,0,0,0,0,0
1555489185203.12,-69.01,0,0,0,0,0
1555489185218.75,-56.1,0,0,0,0,0
1555489185234.38,-37.97,0,0,0,0,0
1555489185250,-17.3,0,0,0,0,0
1555489185265.62,3.15,0,0,0,0,0
1555489185281.25,21.22,0,0,0,0,0
1555489185296.88,35.66,0,0,0,0,0
1555489185312.5,45.88,0,0,0,0,0
1555489185328.12,51.63,0,0,0,0,0
1555489185343.75,52.88,0,0,0,0,0
1555489185359.38,49.77,0,0,0,0,0
1555489185375,42.8,0,0,0,0,0
1555489185390.62,33.04,0,0,0,0,0
1555489185406.25,22.13,0,0,0,0,0
1555489185421.88,11.86,0,0,0,0,0
1555489185437.5,3.86,0,0,0,0,0
1555489185453.12,-0.95,0,0,0,0,0
1555489185468.75,-2.56,0,0,0,0,0
1555489185484.38,-1.8,0,0,0,0,0
1555489185500,-0,0,0,0,0,0
1555489185515.62,1.51,0,0,0,0,0
1555489185531.25,1.87,0,0,0,0,0
1555489185546.88,0.78,0,0,0,0,0
1555489185562.5,-1.62,0,0,0,0,0
1555489185578.12,-4.91,0,0,0,0,0
1555489185593.75,-8.84,0,0,0,0,0
1555489185609.38,-13.33,0,0,0,0,0
1555489185625,-18.44,0,0,0,0,0
1555489185640.62,-24.33,0,0,0,0,0
1555489185656.25,-31.29,0,0,0,0,0
1555489185671.88,-39.59,0,0,0,0,0
1555489185687.5,-49.45,0,0,0,0,0
1555489185703.12,-60.6,0,0,0,0,0
1555489185718.75,-71.91,0,0,0,0,0
1555489185734.38,-81.33,0,0,0,0,0
1555489185750,-86.23,0,0,0,0,0
1555489185765.62,-84.23,0,0,0,0,0
1555489185781.25,-74.15,0,0,0,0,0
1555489185796.88,-56.61,0,0,0,0,0
1555489185812.5,-33.88,0,0,0,0,0
1555489185828.12,-9.16,0,0,0,0,0
1555489185843.75,14.48,0,0,0,0,0
1555489185859.38,34.91,0,0,0,0,0
1555489185875,51.08,0,0,0,0,0
1555489185890.62,62.69,0,0,0,0,0
1555489185906.25,69.77,0,0,0,0,0
1555489185921.88,72.28,0,0,0,0,0
1555489185937.5,70.11,0,0,0,0,0
1555489185953.12,63.56,0,0,0,0,0
1555489185968.75,53.65,0,0,0,0,0
1555489185984.38,42.17,0,0,0,0,0
1555489186000,31.31,0,0,0,0,0
1555489186015.62,22.94,0,0,0,0,0
1555489186031.25,17.99,0,0,0,0,0
1555489186046.88,16.22,0,0,0,0,0
1555489186062.5,16.42,0,0,0,0,0
1555489186078.12,16.97,0,0,0,0,0
1555489186093.75,16.57,0,0,0,0,0
1555489186109.38,14.65,0,0,0,0,0
1555489186125,11.38,0,0,0,0,0
1555489186140.62,7.43,0,0,0,0,0
1555489186156.25,3.38,0,0,0,0,0
1555489186171.88,-0.53,0,0,0,0,0
1555489186187.5,-4.48,0,0,0,0,0
1555489186203.12,-8.95,0,0,0,0,0
1555489186218.75,-14.52,0,0,0,0,0
1555489186234.38,-21.69,0,0,0,0,0
1555489186250,-30.88,0,0,0,0,0
1555489186265.62,-42.34,0,0,0,0,0
1555489186281.25,-55.77,0,0,0,0,0
1555489186296.88,-70.06,0,0,0,0,0
1555489186312.5,-83.05,0,0,0,0,0
1555489186328.12,-91.97,0,0,0,0,0
1555489186343.75,-94.11,0,0,0,0,0
1555489186359.38,-87.96,0,0,0,0,0
1555489186375,-73.84,0,0,0,0,0
1555489186390.62,-53.91,0,0,0,0,0
1555489186406.25,-31.35,0,0,0,0,0
1555489186421.88,-9.26,0,0,0,0,0
1555489186437.5,10.23,0,0,0,0,0
1555489186453.12,26.14,0,0,0,0,0
1555489186468.75,38.24,0,0,0,0,0
1555489186484.38,46.39,0,0,0,0,0
1555489186500,50.09,0,0,0,0,0
1555489186515.62,48.7,0,0,0,0,0
1555489186531.25,42.03,0,0,0,0,0
1555489186546.88,30.92,0,0,0,0,0
1555489186562.5,17.33,0,0,0,0,0
1555489186578.12,3.97,0,0,0,0,0
1555489186593.75,-6.55,0,0,0,0,0
1555489186609.38,-12.56,0,0,0,0,0
1555489186625,-13.68,0,0,0,0,0
1555489186640.62,-10.92,0,0,0,0,0
1555489186656.25,-6.14,0,0,0,0,0
1555489186671.88,-1.59,0,0,0,0,0
1555489186687.5,0.67,0,0,0,0,0
1555489186703.12,-0.87,0,0,0,0,0
1555489186718.75,-6.78,0,0,0,0,0
1555489186734.38,-16.57,0,0,0,0,0
1555489186750,-28.69,0,0,0,0,0
1555489186765.62,-40.77,0,0,0,0,0
1555489186781.25,-50.17,0,0,0,0,0
1555489186796.88,-54.75,0,0,0,0,0
1555489186812.5,-53.62,0,0,0,0,0
1555489186828.12,-47.58,0,0,0,0,0
1555489186843.75,-38.95,0,0,0,0,0
1555489186859.38,-30.79,0,0,0,0,0
1555489186875,-25.58,0,0,0,0,0
1555489186890.62,-24.26,0,0,0,0,0
1555489186906.25,-25.67,0,0,0,0,0
1555489186921.88,-27.04,0,0,0,0,0
1555489186937.5,-25.08,0,0,0,0,0
1555489186953.12,-17.28,0,0,0,0,0
1555489186968.75,-2.91,0,0,0,0,0
1555489186984.38,16.76,0,0,0,0,0
1555489187000,39.01,0,0,0,0,0
1555489187015.62,60.55,0,0,0,0,0
1555489187031.25,78.64,0,0,0,0,0
1555489187046.88,91.58,0,0,0,0,0
1555489187062.5,98.84,0,0,0,0,0
1555489187078.12,100.7,0,0,0,0,0
1555489187093.75,97.98,0,0,0,0,0
1555489187109.38,91.68,0,0,0,0,0
1555489187125,82.94,0,0,0,0,0
1555489187140.62,73.03,0,0,0,0,0
1555489187156.25,63.35,0,0,0,0,0
1555489187171.88,55.25,0,0,0,0,0
1555489187187.5,49.9,0,0,0,0,0
1555489187203.12,47.69,0,0,0,0,0
1555489187218.75,48.08,0,0,0,0,0
1555489187234.38,49.59,0,0,0,0,0
1555489187250,50.45,0,0,0,0,0
1555489187265.62,49.22,0,0,0,0,0
1555489187281.25,45.59,0,0,0,0,0
1555489187296.88,40.5,0,0,0,0,0
1555489187312.5,35.62,0,0,0,0,0
1555489187328.12,32.6,0,0,0,0,0
1555489187343.75,32.08,0,0,0,0,0
1555489187359.38,33.31,0,0,0,0,0
1555489187375,34.45,0,0,0,0,0
1555489187390.62,33.39,0,0,0,0,0
1555489187406.25,28.56,0,0,0,0,0
1555489187421.88,19.51,0,0,0,0,0
1555489187437.5,6.96,0,0,0,0,0
1555489187453.12,-7.56,0,0,0,0,0
1555489187468.75,-22.06,0,0,0,0,0
1555489187484.38,-34.38,0,0,0,0,0
1555489187500,-42.46,0,0,0,0,0
1555489187515.62,-44.73,0,0,0,0,0
1555489187531.25,-40.47,0,0,0,0,0
1555489187546.88,-30.11,0,0,0,0,0
1555489187562.5,-15.31,0,0,0,0,0
1555489187578.12,1.36,0,0,0,0,0
1555489187593.75,17.15,0,0,0,0,0
1555489187609.38,29.85,0,0,0,0,0
1555489187625,38.3,0,0,0,0,0
1555489187640.62,42.36,0,0,0,0,0
1555489187656.25,42.63,0,0,0,0,0
1555489187671.88,39.93,0,0,0,0,0
1555489187687.5,35,0,0,0,0,0
1555489187703.12,28.6,0,0,0,0,0
1555489187718.75,21.56,0,0,0,0,0
1555489187734.38,14.92,0,0,0,0,0
1555489187750,9.83,0,0,0,0,0
1555489187765.62,7.23,0,0,0,0,0
1555489187781.25,7.49,0,0,0,0,0
1555489187796.88,10.22,0,0,0,0,0
1555489187812.5,14.3,0,0,0,0,0
1555489187828.12,18.35,0,0,0,0,0
1555489187843.75,21.16,0,0,0,0,0
1555489187859.38,22.18,0,0,0,0,0
1555489187875,21.56,0,0,0,0,0
1555489187890.62,20,0,0,0,0,0
1555489187906.25,18.27,0,0,0,0,0
1555489187921.88,16.8,0,0,0,0,0
1555489187937.5,15.53,0,0,0,0,0
1555489187953.12,13.97,0,0,0,0,0
1555489187968.75,11.46,0,0,0,0,0
1555489187984.38,7.34,0,0,0,0,0
1555489188000,1.35,0,0,0,0,0
1555489188015.62,-6.39,0,0,0,0,0
1555489188031.25,-15.21,0,0,0,0,0
1555489188046.88,-23.92,0,0,0,0,0
1555489188062.5,-31.08,0,0,0,0,0
1555489188078.12,-35.36,0,0,0,0,0
1555489188093.75,-35.91,0,0,0,0,0
1555489188109.38,-32.63,0,0,0,0,0
1555489188125,-26.21,0,0,0,0,0
1555489188140.62,-17.77,0,0,0,0,0
1555489188156.25,-8.54,0,0,0,0,0
1555489188171.88,0.55,0,0,0,0,0
1555489188187.5,8.9,0,0,0,0,0
1555489188203.12,16.04,0,0,0,0,0
1555489188218.75,21.43,0,0,0,0,0
1555489188234.38,24.43,0,0,0,0,0
1555489188250,24.45,0,0,0,0,0
1555489188265.62,21.33,0,0,0,0,0
1555489188281.25,15.57,0,0,0,0,0
1555489188296.88,8.22,0,0,0,0,0
1555489188312.5,0.67,0,0,0,0,0
1555489188328.12,-5.85,0,0,0,0,0
1555489188343.75,-10.53,0,0,0,0,0
1555489188359.38,-13.15,0,0,0,0,0
1555489188375,-13.93,0,0,0,0,0
1555489188390.62,-13.37,0,0,0,0,0
1555489188406.25,-12.04,0,0,0,0,0
1555489188421.88,-10.32,0,0,0,0,0
1555489188437.5,-8.62,0,0,0,0,0
1555489188453.12,-7.27,0,0,0,0,0
1555489188468.75,-6.67,0,0,0,0,0
1555489188484.38,-7.34,0,0,0,0,0
1555489188500,-9.91,0,0,0,0,0
1555489188515.62,-14.89,0,0,0,0,0
1555489188531.25,-22.56,0,0,0,0,0
1555489188546.88,-32.67,0,0,0,0,0
1555489188562.5,-44.35,0,0,0,0,0
1555489188578.12,-56.33,0,0,0,0,0
1555489188593.75,-66.99,0,0,0,0,0
1555489188609.38,-74.64,0,0,0,0,0
1555489188625,-77.8,0,0,0,0,0
1555489188640.62,-75.4,0,0,0,0,0
