Timestamp,BVP,Note,AGG,ED,SIB,Condition
1553855696000,-0,0,0,0,0,0
1553855696015.62,-0,0,0,0,0,0
1553855696031.25,-0,0,0,0,0,0
1553855696046.88,-0,0,0,0,0,0
1553855696062.5,-0,0,0,0,0,0
1553855696078.12,-0,0,0,0,0,0
1553855696093.75,-0,0,0,0,0,0
1553855696109.38,-0,0,0,0,0,0
1553855696125,-0,0,0,0,0,0
1553855696140.62,-0,0,0,0,0,0
1553855696156.25,0,0,0,0,0,0
1553855696171.88,0.01,0,0,0,0,0
1553855696187.5,0.01,0,0,0,0,0
1553855696203.12,-0,0,0,0,0,0
1553855696218.75,-0.03,0,0,0,0,0
1553855696234.38,-0.05,0,0,0,0,0
1553855696250,-0.05,0,0,0,0,0
1553855696265.62,0,0,0,0,0,0
1553855696281.25,0.13,0,0,0,0,0
1553855696296.88,0.36,0,0,0,0,0
1553855696312.5,0.66,0,0,0,0,0
1553855696328.12,1.01,0,0,0,0,0
1553855696343.75,1.37,0,0,0,0,0
1553855696359.38,1.72,0,0,0,0,0
1553855696375,2.06,0,0,0,0,0
1553855696390.62,2.4,0,0,0,0,0
1553855696406.25,2.79,0,0,0,0,0
1553855696421.88,3.24,0,0,0,0,0
1553855696437.5,3.8,0,0,0,0,0
1553855696453.12,4.42,0,0,0,0,0
1553855696468.75,5.06,0,0,0,0,0
1553855696484.38,5.66,0,0,0,0,0
1553855696500,6.2,0,0,0,0,0
1553855696515.62,6.68,0,0,0,0,0
1553855696531.25,7.15,0,0,0,0,0
1553855696546.88,7.68,0,0,0,0,0
1553855696562.5,8.31,0,0,0,0,0
1553855696578.12,9.14,0,0,0,0,0
1553855696593.75,10.09,0,0,0,0,0
1553855696609.38,11.04,0,0,0,0,0
1553855696625,11.88,0,0,0,0,0
1553855696640.62,12.56,0,0,0,0,0
1553855696656.25,13.14,0,0,0,0,0
1553855696671.88,13.76,0,0,0,0,0
1553855696687.5,14.65,0,0,0,0,0
1553855696703.12,15.96,0,0,0,0,0
1553855696718.75,17.91,0,0,0,0,0
1553855696734.38,20.32,0,0,0,0,0
1553855696750,22.9,0,0,0,0,0
1553855696765.62,25.38,0,0,0,0,0
1553855696781.25,27.58,0,0,0,0,0
1553855696796.88,29.57,0,0,0,0,0
1553855696812.5,31.68,0,0,0,0,0
1553855696828.12,34.32,0,0,0,0,0
1553855696843.75,37.81,0,0,0,0,0
1553855696859.38,42.54,0,0,0,0,0
1553855696875,48.15,0,0,0,0,0
1553855696890.62,54.1,0,0,0,0,0
1553855696906.25,59.83,0,0,0,0,0
1553855696921.88,64.97,0,0,0,0,0
1553855696937.5,69.58,0,0,0,0,0
1553855696953.12,74.14,0,0,0,0,0
1553855696968.75,79.34,0,0,0,0,0
1553855696984.38,85.71,0,0,0,0,0
1553855697000,93.76,0,0,0,0,0
1553855697015.62,103,0,0,0,0,0
1553855697031.25,112.62,0,0,0,0,0
1553855697046.88,121.73,0,0,0,0,0
1553855697062.5,129.77,0,0,0,0,0
1553855697078.12,136.75,0,0,0,0,0
1553855697093.75,143.3,0,0,0,0,0
1553855697109.38,150.75,0,0,0,0,0
1553855697125,157.77,0,0,0,0,0
1553855697140.62,166.64,0,0,0,0,0
1553855697156.25,177.95,0,0,0,0,0
1553855697171.88,191.79,0,0,0,0,0
1553855697187.5,206.97,0,0,0,0,0
1553855697203.12,220.57,0,0,0,0,0
1553855697218.75,228.25,0,0,0,0,0
1553855697234.38,225.36,0,0,0,0,0
1553855697250,208.53,0,0,0,0,0
1553855697265.62,176.87,0,0,0,0,0
1553855697281.25,132.76,0,0,0,0,0
1553855697296.88,80.05,0,0,0,0,0
1553855697312.5,23.07,0,0,0,0,0
1553855697328.12,-34.94,0,0,0,0,0
1553855697343.75,-92.44,0,0,0,0,0
1553855697359.38,-149.16,0,0,0,0,0
1553855697375,-205.23,0,0,0,0,0
1553855697390.62,-260.37,0,0,0,0,0
1553855697406.25,-313.74,0,0,0,0,0
1553855697421.88,-363.87,0,0,0,0,0
1553855697437.5,-409.83,0,0,0,0,0
1553855697453.12,-450.91,0,0,0,0,0
1553855697468.75,-486.5,0,0,0,0,0
1553855697484.38,-515.74,0,0,0,0,0
1553855697500,-537.23,0,0,0,0,0
1553855697515.62,-549.22,0,0,0,0,0
1553855697531.25,-549.96,0,0,0,0,0
1553855697546.88,-538.37,0,0,0,0,0
1553855697562.5,-514.21,0,0,0,0,0
1553855697578.12,-478.67,0,0,0,0,0
1553855697593.75,-433.88,0,0,0,0,0
1553855697609.38,-382.45,0,0,0,0,0
1553855697625,-327.02,0,0,0,0,0
1553855697640.62,-269.84,0,0,0,0,0
1553855697656.25,-212.64,0,0,0,0,0
1553855697671.88,-156.66,0,0,0,0,0
1553855697687.5,-102.95,0,0,0,0,0
1553855697703.12,-52.37,0,0,0,0,0
1553855697718.75,-5.9,0,0,0,0,0
1553855697734.38,35.59,0,0,0,0,0
1553855697750,71.44,0,0,0,0,0
1553855697765.62,101.38,0,0,0,0,0
1553855697781.25,125.55,0,0,0,0,0
1553855697796.88,144.45,0,0,0,0,0
1553855697812.5,158.79,0,0,0,0,0
1553855697828.12,169.28,0,0,0,0,0
1553855697843.75,176.54,0,0,0,0,0
1553855697859.38,180.96,0,0,0,0,0
1553855697875,182.83,0,0,0,0,0
1553855697890.62,182.37,0,0,0,0,0
1553855697906.25,179.87,0,0,0,0,0
1553855697921.88,175.65,0,0,0,0,0
1553855697937.5,170.13,0,0,0,0,0
1553855697953.12,163.71,0,0,0,0,0
1553855697968.75,156.74,0,0,0,0,0
1553855697984.38,149.47,0,0,0,0,0
1553855698000,142.02,0,0,0,0,0
1553855698015.62,134.49,0,0,0,0,0
1553855698031.25,126.89,0,0,0,0,0
1553855698046.88,119.28,0,0,0,0,0
1553855698062.5,111.72,0,0,0,0,0
1553855698078.12,104.28,0,0,0,0,0
1553855698093.75,97.03,0,0,0,0,0
1553855698109.38,90.03,1,0,0,0,0
1553855698125,83.29,1,0,0,0,0
1553855698140.62,76.85,1,0,0,0,0
1553855698156.25,70.71,1,0,0,0,0
1553855698171.88,64.88,1,0,0,0,0
1553855698187.5,59.38,1,0,0,0,0
1553855698203.12,54.21,1,0,0,0,0
1553855698218.75,49.38,1,0,0,0,0
1553855698234.38,44.89,1,0,0,0,0
1553855698250,40.75,1,0,0,0,0
1553855698265.62,36.94,1,0,0,0,0
1553855698281.25,33.47,1,0,0,0,0
1553855698296.88,30.33,1,0,0,0,0
1553855698312.5,27.51,1,0,0,0,0
1553855698328.12,25.01,1,0,0,0,0
1553855698343.75,22.82,1,0,0,0,0
1553855698359.38,20.94,1,0,0,0,0
1553855698375,19.37,1,0,0,0,0
1553855698390.62,18.09,1,0,0,0,0
1553855698406.25,17.09,1,0,0,0,0
1553855698421.88,16.37,1,0,0,0,0
1553855698437.5,15.91,1,0,0,0,0
1553855698453.12,15.69,1,0,0,0,0
1553855698468.75,15.69,1,0,0,0,0
1553855698484.38,15.9,1,0,0,0,0
1553855698500,16.3,1,0,0,0,0
1553855698515.62,16.87,1,0,0,0,0
1553855698531.25,17.6,1,0,0,0,0
1553855698546.88,18.47,1,0,0,0,0
1553855698562.5,19.49,1,0,0,0,0
1553855698578.12,20.65,1,0,0,0,0
1553855698593.75,21.94,1,0,0,0,0
1553855698609.38,23.33,1,0,0,0,0
1553855698625,24.82,1,0,0,0,0
1553855698640.62,26.35,1,0,0,0,0
1553855698656.25,27.86,1,0,0,0,0
1553855698671.88,29.25,1,0,0,0,0
1553855698687.5,30.41,1,0,0,0,0
1553855698703.12,31.2,0,0,0,0,0
1553855698718.75,31.46,0,0,0,0,0
1553855698734.38,31.08,0,0,0,0,0
1553855698750,29.92,0,0,0,0,0
1553855698765.62,27.92,0,0,0,0,0
1553855698781.25,25.06,0,0,0,0,0
1553855698796.88,21.39,0,0,0,0,0
1553855698812.5,16.96,0,0,0,0,0
1553855698828.12,11.97,0,0,0,0,0
1553855698843.75,6.61,0,0,0,0,0
1553855698859.38,1.13,0,0,0,0,0
1553855698875,-4.21,0,0,0,0,0
1553855698890.62,-9.18,0,0,0,0,0
1553855698906.25,-13.55,0,0,0,0,0
1553855698921.88,-17.18,0,0,0,0,0
1553855698937.5,-19.96,0,0,0,0,0
1553855698953.12,-21.84,0,0,0,0,0
1553855698968.75,-22.84,0,0,0,0,0
1553855698984.38,-23.04,0,0,0,0,0
1553855699000,-22.54,0,0,0,0,0
1553855699015.62,-21.48,0,0,0,0,0
1553855699031.25,-19.97,0,0,0,0,0
1553855699046.88,-18.16,0,0,0,0,0
1553855699062.5,-16.14,0,0,0,0,0
1553855699078.12,-14,0,0,0,0,0
1553855699093.75,-11.78,0,0,0,0,0
1553855699109.38,-9.52,0,0,0,0,0
1553855699125,-7.25,0,0,0,0,0
1553855699140.62,-5,0,0,0,0,0
1553855699156.25,-2.78,0,0,0,0,0
1553855699171.88,-0.59,0,0,0,0,0
1553855699187.5,1.58,0,0,0,0,0
1553855699203.12,3.74,0,0,0,0,0
1553855699218.75,5.93,0,0,0,0,0
1553855699234.38,8.18,0,0,0,0,0
1553855699250,10.58,0,0,0,0,0
1553855699265.62,13.08,0,0,0,0,0
1553855699281.25,15.7,0,0,0,0,0
1553855699296.88,18.46,0,0,0,0,0
1553855699312.5,21.38,0,0,0,0,0
1553855699328.12,24.49,0,0,0,0,0
1553855699343.75,27.8,0,0,0,0,0
1553855699359.38,31.34,0,0,0,0,0
1553855699375,35.12,0,0,0,0,0
1553855699390.62,39.21,0,0,0,0,0
1553855699406.25,43.47,0,0,0,0,0
1553855699421.88,47.81,0,0,0,0,0
1553855699437.5,52.19,0,0,0,0,0
1553855699453.12,56.59,0,0,0,0,0
1553855699468.75,61.05,0,0,0,0,0
1553855699484.38,65.58,0,0,0,0,0
1553855699500,70.29,0,0,0,0,0
1553855699515.62,75.25,0,0,0,0,0
1553855699531.25,80.64,0,0,0,0,0
1553855699546.88,86.27,0,0,0,0,0
1553855699562.5,92.08,0,0,0,0,0
1553855699578.12,98.01,0,0,0,0,0
1553855699593.75,104.05,0,0,0,0,0
1553855699609.38,110.18,0,0,0,0,0
1553855699625,116.39,0,0,0,0,0
1553855699640.62,122.69,0,0,0,0,0
1553855699656.25,129.1,0,0,0,0,0
1553855699671.88,135.71,0,0,0,0,0
1553855699687.5,142.17,0,0,0,0,0
1553855699703.12,148.23,0,0,0,0,0
1553855699718.75,153.65,0,0,0,0,0
1553855699734.38,158.17,0,0,0,0,0
1553855699750,161.46,0,0,0,0,0
1553855699765.62,163.1,0,0,0,0,0
1553855699781.25,162.46,0,0,0,0,0
1553855699796.88,158.65,0,0,0,0,0
1553855699812.5,153.32,0,0,0,0,0
1553855699828.12,147.02,0,0,0,0,0
1553855699843.75,140.1,0,0,0,0,0
1553855699859.38,132.76,0,0,0,0,0
1553855699875,125.2,0,0,0,0,0
1553855699890.62,117.55,0,0,0,0,0
1553855699906.25,109.94,0,0,0,0,0
1553855699921.88,102.51,0,0,0,0,0
1553855699937.5,95.41,0,0,0,0,0
1553855699953.12,88.86,0,0,0,0,0
1553855699968.75,82.63,0,0,0,0,0
1553855699984.38,76.62,0,0,0,0,0
1553855700000,70.8,0,0,0,0,0
1553855700015.62,65.12,0,0,0,0,0
1553855700031.25,59.59,0,0,0,0,0
1553855700046.88,54.23,0,0,0,0,0
1553855700062.5,49.08,0,0,0,0,0
1553855700078.12,44.23,0,0,0,0,0
1553855700093.75,39.81,0,0,0,0,0
1553855700109.38,35.66,0,0,0,0,0
1553855700125,31.69,0,0,0,0,0
1553855700140.62,27.86,0,0,0,0,0
1553855700156.25,24.16,0,0,0,0,0
1553855700171.88,20.57,0,0,0,0,0
1553855700187.5,17.12,0,0,0,0,0
1553855700203.12,13.86,0,0,0,0,0
1553855700218.75,10.86,0,0,0,0,0
1553855700234.38,8.26,0,0,0,0,0
1553855700250,5.99,0,0,0,0,0
1553855700265.62,4,0,0,0,0,0
1553855700281.25,2.24,0,0,0,0,0
1553855700296.88,0.65,0,0,0,0,0
1553855700312.5,-0.84,0,0,0,0,0
1553855700328.12,-2.28,0,0,0,0,0
1553855700343.75,-3.68,0,0,0,0,0
1553855700359.38,-5.01,0,0,0,0,0
1553855700375,-6.19,0,0,0,0,0
1553855700390.62,-7.23,0,0,0,0,0
1553855700406.25,-8.14,0,0,0,0,0
1553855700421.88,-8.96,0,0,0,0,0
1553855700437.5,-9.77,0,0,0,0,0
1553855700453.12,-10.65,0,0,0,0,0
1553855700468.75,-11.66,0,0,0,0,0
1553855700484.38,-12.83,0,0,0,0,0
1553855700500,-14.08,0,0,0,0,0
1553855700515.62,-15.29,0,0,0,0,0
1553855700531.25,-16.41,0,0,0,0,0
1553855700546.88,-17.45,0,0,0,0,0
1553855700562.5,-18.51,0,0,0,0,0
1553855700578.12,-19.81,0,0,0,0,0
1553855700593.75,-21.57,0,0,0,0,0
1553855700609.38,-23.94,0,0,0,0,0
1553855700625,-26.9,0,0,0,0,0
1553855700640.62,-30.26,0,0,0,0,0
1553855700656.25,-33.71,0,0,0,0,0
1553855700671.88,-36.97,0,0,0,0,0
1553855700687.5,-39.96,0,0,0,0,0
1553855700703.12,-42.86,0,0,0,0,0
1553855700718.75,-46.06,0,0,0,0,0
1553855700734.38,-50.06,0,0,0,0,0
1553855700750,-55.19,0,0,0,0,0
1553855700765.62,-61.47,0,0,0,0,0
1553855700781.25,-68.54,0,0,0,0,0
1553855700796.88,-75.82,0,0,0,0,0
1553855700812.5,-82.74,0,0,0,0,0
1553855700828.12,-89.08,0,0,0,0,0
1553855700843.75,-95.05,0,0,0,0,0
1553855700859.38,-101.29,0,0,0,0,0
1553855700875,-108.58,0,0,0,0,0
1553855700890.62,-117.46,0,0,0,0,0
1553855700906.25,-128.01,0,0,0,0,0
1553855700921.88,-139.75,0,0,0,0,0
1553855700937.5,-151.93,0,0,0,0,0
1553855700953.12,-163.78,0,0,0,0,0
1553855700968.75,-174.97,0,0,0,0,0
1553855700984.38,-185.68,0,0,0,0,0
1553855701000,-196.53,0,0,0,0,0
1553855701015.62,-208.44,0,0,0,0,0
1553855701031.25,-222.45,0,0,0,0,0
1553855701046.88,-239.52,0,0,0,0,0
1553855701062.5,-260.19,0,0,0,0,0
1553855701078.12,-284.14,0,0,0,0,0
1553855701093.75,-309.61,0,0,0,0,0
1553855701109.38,-333.39,0,0,0,0,0
1553855701125,-351.27,0,0,0,0,0
1553855701140.62,-359.31,0,0,0,0,0
1553855701156.25,-355.23,0,0,0,0,0
1553855701171.88,-339.33,0,0,0,0,0
1553855701187.5,-314.42,0,0,0,0,0
1553855701203.12,-284.78,0,0,0,0,0
1553855701218.75,-254.66,0,0,0,0,0
1553855701234.38,-226.94,0,0,0,0,0
1553855701250,-202.65,0,0,0,0,0
1553855701265.62,-181.41,0,0,0,0,0
1553855701281.25,-162.28,0,0,0,0,0
1553855701296.88,-144.49,0,0,0,0,0
1553855701312.5,-127.73,0,0,0,0,0
1553855701328.12,-112.06,0,0,0,0,0
1553855701343.75,-97.5,0,0,0,0,0
1553855701359.38,-83.96,0,0,0,0,0
1553855701375,-71.22,0,0,0,0,0
1553855701390.62,-59.24,0,0,0,0,0
1553855701406.25,-48.34,0,0,0,0,0
1553855701421.88,-39.28,0,0,0,0,0
1553855701437.5,-33.02,0,0,0,0,0
1553855701453.12,-30.15,0,0,0,0,0
1553855701468.75,-30.38,0,0,0,0,0
1553855701484.38,-32.31,0,0,0,0,0
1553855701500,-33.79,0,0,0,0,0
1553855701515.62,-32.61,0,0,0,0,0
1553855701531.25,-27.46,0,0,0,0,0
1553855701546.88,-18.55,0,0,0,0,0
1553855701562.5,-7.51,0,0,0,0,0
1553855701578.12,3.25,0,0,0,0,0
1553855701593.75,11.51,0,0,0,0,0
1553855701609.38,16.11,0,0,0,0,0
1553855701625,17.26,0,0,0,0,0
1553855701640.62,16.24,0,0,0,0,0
1553855701656.25,14.63,0,0,0,0,0
1553855701671.88,13.65,0,0,0,0,0
1553855701687.5,13.74,0,0,0,0,0
1553855701703.12,14.63,0,0,0,0,0
1553855701718.75,15.68,0,0,0,0,0
1553855701734.38,16.3,0,0,0,0,0
1553855701750,16.15,0,0,0,0,0
1553855701765.62,15.19,0,0,0,0,0
1553855701781.25,13.55,0,0,0,0,0
1553855701796.88,11.46,0,0,0,0,0
1553855701812.5,9.16,0,0,0,0,0
1553855701828.12,7.05,0,0,0,0,0
1553855701843.75,5.55,0,0,0,0,0
1553855701859.38,5.07,0,0,0,0,0
1553855701875,5.79,0,0,0,0,0
1553855701890.62,7.64,0,0,0,0,0
1553855701906.25,10.23,0,0,0,0,0
1553855701921.88,12.98,0,0,0,0,0
1553855701937.5,15.33,0,0,0,0,0
1553855701953.12,16.92,0,0,0,0,0
1553855701968.75,17.57,0,0,0,0,0
1553855701984.38,17.43,0,0,0,0,0
1553855702000,16.72,0,0,0,0,0
1553855702015.62,15.85,0,0,0,0,0
1553855702031.25,15.19,0,0,0,0,0
1553855702046.88,15.01,0,0,0,0,0
1553855702062.5,15.43,0,0,0,0,0
1553855702078.12,16.42,0,0,0,0,0
1553855702093.75,17.85,0,0,0,0,0
1553855702109.38,19.57,0,0,0,0,0
1553855702125,21.48,0,0,0,0,0
1553855702140.62,23.52,0,0,0,0,0
1553855702156.25,25.54,0,0,0,0,0
1553855702171.88,27.34,0,0,0,0,0
1553855702187.5,28.66,0,0,0,0,0
1553855702203.12,29.37,0,0,0,0,0
1553855702218.75,29.55,0,0,0,0,0
1553855702234.38,29.36,0,0,0,0,0
1553855702250,29.1,0,0,0,0,0
1553855702265.62,29.05,0,0,0,0,0
1553855702281.25,29.34,0,0,0,0,0
1553855702296.88,30.1,0,0,0,0,0
1553855702312.5,31.28,0,0,0,0,0
1553855702328.12,32.87,0,0,0,0,0
1553855702343.75,34.68,0,0,0,0,0
1553855702359.38,36.26,0,0,0,0,0
1553855702375,37.03,0,0,0,0,0
1553855702390.62,36.3,0,0,0,0,0
1553855702406.25,33.56,0,0,0,0,0
1553855702421.88,28.66,0,0,0,0,0
1553855702437.5,21.98,0,0,0,0,0
1553855702453.12,14.37,0,0,0,0,0
1553855702468.75,6.87,0,0,0,0,0
1553855702484.38,0.48,0,0,0,0,0
1553855702500,-4.24,0,0,0,0,0
1553855702515.62,-7.25,0,0,0,0,0
1553855702531.25,-9.11,0,0,0,0,0
1553855702546.88,-10.67,0,0,0,0,0
1553855702562.5,-12.82,0,0,0,0,0
1553855702578.12,-16.08,0,0,0,0,0
1553855702593.75,-20.4,0,0,0,0,0
1553855702609.38,-25.2,0,0,0,0,0
1553855702625,-29.52,0,0,0,0,0
1553855702640.62,-32.59,0,0,0,0,0
1553855702656.25,-34.09,0,0,0,0,0
1553855702671.88,-34.44,0,0,0,0,0
1553855702687.5,-34.73,0,0,0,0,0
1553855702703.12,-36.22,0,0,0,0,0
1553855702718.75,-39.73,0,0,0,0,0
1553855702734.38,-45.26,0,0,0,0,0
1553855702750,-51.95,0,0,0,0,0
1553855702765.62,-58.45,0,0,0,0,0
1553855702781.25,-63.64,0,0,0,0,0
1553855702796.88,-67.02,0,0,0,0,0
1553855702812.5,-68.97,0,0,0,0,0
1553855702828.12,-70.34,0,0,0,0,0
1553855702843.75,-71.98,0,0,0,0,0
1553855702859.38,-74.36,0,0,0,0,0
1553855702875,-77.4,0,0,0,0,0
1553855702890.62,-80.72,0,0,0,0,0
1553855702906.25,-83.86,0,0,0,0,0
1553855702921.88,-86.29,0,0,0,0,0
1553855702937.5,-87.24,0,0,0,0,0
1553855702953.12,-85.55,0,0,0,0,0
1553855702968.75,-80.27,0,0,0,0,0
1553855702984.38,-71.84,0,0,0,0,0
1553855703000,-63.17,0,0,0,0,0
1553855703015.62,-59.59,0,0,0,0,0
1553855703031.25,-66.84,0,0,0,0,0
1553855703046.88,-87.94,0,0,0,0,0
1553855703062.5,-120.47,0,0,0,0,0
1553855703078.12,-156.32,0,0,0,0,0
1553855703093.75,-184.28,0,0,0,0,0
1553855703109.38,-194.59,0,0,0,0,0
1553855703125,-182.8,0,0,0,0,0
1553855703140.62,-151.17,0,0,0,0,0
1553855703156.25,-106.58,0,0,0,0,0
1553855703171.88,-56.73,0,0,0,0,0
1553855703187.5,-7.04,0,0,0,0,0
1553855703203.12,40.1,0,0,0,0,0
1553855703218.75,83.77,0,0,0,0,0
1553855703234.38,122.36,0,0,0,0,0
1553855703250,152.61,0,0,0,0,0
1553855703265.62,170.8,0,0,0,0,0
1553855703281.25,175.03,0,0,0,0,0
1553855703296.88,166.9,0,0,0,0,0
1553855703312.5,151.22,0,0,0,0,0
1553855703328.12,133.96,0,0,0,0,0
1553855703343.75,119.69,0,0,0,0,0
1553855703359.38,109.83,0,0,0,0,0
1553855703375,102.89,0,0,0,0,0
1553855703390.62,95.89,0,0,0,0,0
1553855703406.25,86.6,0,0,0,0,0
1553855703421.88,74.96,0,0,0,0,0
1553855703437.5,63.22,0,0,0,0,0
1553855703453.12,54.77,0,0,0,0,0
1553855703468.75,52.56,0,0,0,0,0
1553855703484.38,57.65,0,0,0,0,0
1553855703500,68.67,0,0,0,0,0
1553855703515.62,82.2,0,0,0,0,0
1553855703531.25,93.96,0,0,0,0,0
1553855703546.88,100.29,0,0,0,0,0
1553855703562.5,99.18,0,0,0,0,0
1553855703578.12,90.75,0,0,0,0,0
1553855703593.75,76.93,0,0,0,0,0
1553855703609.38,60.56,0,0,0,0,0
1553855703625,44.35,0,0,0,0,0
1553855703640.62,30.03,0,0,0,0,0
1553855703656.25,18.11,0,0,0,0,0
1553855703671.88,8.1,0,0,0,0,0
1553855703687.5,-0.79,0,0,0,0,0
1553855703703.12,-9.05,0,0,0,0,0
1553855703718.75,-16.6,0,0,0,0,0
1553855703734.38,-22.93,0,0,0,0,0
1553855703750,-27.51,0,0,0,0,0
1553855703765.62,-30.12,0,0,0,0,0
1553855703781.25,-31,0,0,0,0,0
1553855703796.88,-30.49,0,0,0,0,0
1553855703812.5,-28.65,0,0,0,0,0
1553855703828.12,-24.97,0,0,0,0,0
1553855703843.75,-18.51,0,0,0,0,0
1553855703859.38,-8.49,0,0,0,0,0
1553855703875,5.08,0,0,0,0,0
1553855703890.62,21.13,0,0,0,0,0
1553855703906.25,37.67,0,0,0,0,0
1553855703921.88,52.45,0,0,0,0,0
1553855703937.5,63.74,0,0,0,0,0
1553855703953.12,70.87,0,0,0,0,0
1553855703968.75,74.29,0,0,0,0,0
1553855703984.38,75.25,0,0,0,0,0
1553855704000,75.18,0,0,0,0,0
1553855704015.62,75.13,0,0,0,0,0
1553855704031.25,75.47,0,0,0,0,0
1553855704046.88,75.93,0,0,0,0,0
1553855704062.5,75.95,0,0,0,0,0
1553855704078.12,74.95,0,0,0,0,0
1553855704093.75,72.73,0,0,0,0,0
1553855704109.38,69.36,0,0,0,0,0
1553855704125,65.01,0,0,0,0,0
1553855704140.62,59.77,0,0,0,0,0
1553855704156.25,53.4,0,0,0,0,0
1553855704171.88,45.4,0,0,0,0,0
1553855704187.5,35.31,0,0,0,0,0
1553855704203.12,23.04,0,0,0,0,0
1553855704218.75,8.92,0,0,0,0,0
1553855704234.38,-6.35,0,0,0,0,0
1553855704250,-22.03,0,0,0,0,0
1553855704265.62,-37.63,0,0,0,0,0
1553855704281.25,-52.91,0,0,0,0,0
1553855704296.88,-67.71,0,0,0,0,0
1553855704312.5,-81.45,0,0,0,0,0
1553855704328.12,-92.99,0,0,0,0,0
1553855704343.75,-100.7,0,0,0,0,0
1553855704359.38,-103.04,0,0,0,0,0
1553855704375,-99.23,0,0,0,0,0
1553855704390.62,-89.65,0,0,0,0,0
1553855704406.25,-75.87,0,0,0,0,0
1553855704421.88,-60,0,0,0,0,0
1553855704437.5,-43.98,0,0,0,0,0
1553855704453.12,-29.02,0,0,0,0,0
1553855704468.75,-15.38,0,0,0,0,0
1553855704484.38,-2.76,0,0,0,0,0
1553855704500,9.25,0,0,0,0,0
1553855704515.62,20.64,0,0,0,0,0
1553855704531.25,30.94,0,0,0,0,0
1553855704546.88,39.43,0,0,0,0,0
1553855704562.5,45.5,0,0,0,0,0
1553855704578.12,48.97,0,0,0,0,0
1553855704593.75,50.07,0,0,0,0,0
1553855704609.38,49.27,0,0,0,0,0
1553855704625,46.91,0,0,0,0,0
1553855704640.62,43.3,0,0,0,0,0
1553855704656.25,38.67,0,0,0,0,0
1553855704671.88,33.41,0,0,0,0,0
1553855704687.5,28.07,0,0,0,0,0
1553855704703.12,23.3,0,0,0,0,0
1553855704718.75,19.51,0,0,0,0,0
1553855704734.38,16.81,0,0,0,0,0
1553855704750,14.95,0,0,0,0,0
1553855704765.62,13.48,0,0,0,0,0
1553855704781.25,11.98,0,0,0,0,0
1553855704796.88,10.23,0,0,0,0,0
1553855704812.5,8.17,0,0,0,0,0
1553855704828.12,5.86,0,0,0,0,0
1553855704843.75,3.35,0,0,0,0,0
1553855704859.38,0.69,0,0,0,0,0
1553855704875,-2.11,0,0,0,0,0
1553855704890.62,-5.13,0,0,0,0,0
1553855704906.25,-8.54,0,0,0,0,0
1553855704921.88,-12.63,0,0,0,0,0
1553855704937.5,-17.64,0,0,0,0,0
1553855704953.12,-23.59,0,0,0,0,0
1553855704968.75,-30.02,0,0,0,0,0
1553855704984.38,-36.01,0,0,0,0,0
1553855705000,-40.24,0,0,0,0,0
1553855705015.62,-41.5,0,0,0,0,0
1553855705031.25,-39.08,0,0,0,0,0
1553855705046.88,-32.95,0,0,0,0,0
1553855705062.5,-23.75,0,0,0,0,0
1553855705078.12,-12.47,0,0,0,0,0
1553855705093.75,-0.11,0,0,0,0,0
1553855705109.38,12.63,0,0,0,0,0
1553855705125,25.34,0,0,0,0,0
1553855705140.62,37.79,0,0,0,0,0
1553855705156.25,49.59,0,0,0,0,0
1553855705171.88,60.02,0,0,0,0,0
1553855705187.5,68.09,0,0,0,0,0
1553855705203.12,72.85,0,0,0,0,0
1553855705218.75,73.74,0,0,0,0,0
1553855705234.38,70.95,0,0,0,0,0
1553855705250,65.33,0,0,0,0,0
1553855705265.62,58.22,0,0,0,0,0
1553855705281.25,50.97,0,0,0,0,0
1553855705296.88,44.64,0,0,0,0,0
1553855705312.5,39.92,0,0,0,0,0
1553855705328.12,37.22,0,0,0,0,0
1553855705343.75,36.72,0,0,0,0,0
1553855705359.38,38.35,0,0,0,0,0
1553855705375,41.65,0,0,0,0,0
1553855705390.62,45.59,0,0,0,0,0
1553855705406.25,48.68,0,0,0,0,0
1553855705421.88,49.36,0,0,0,0,0
1553855705437.5,46.47,0,0,0,0,0
1553855705453.12,39.74,0,0,0,0,0
1553855705468.75,29.86,0,0,0,0,0
1553855705484.38,18.27,0,0,0,0,0
1553855705500,6.62,0,0,0,0,0
1553855705515.62,-3.72,0,0,0,0,0
1553855705531.25,-12.1,0,0,0,0,0
1553855705546.88,-18.54,0,0,0,0,0
1553855705562.5,-23.6,0,0,0,0,0
1553855705578.12,-28.06,0,0,0,0,0
1553855705593.75,-32.64,0,0,0,0,0
1553855705609.38,-37.93,0,0,0,0,0
1553855705625,-44.07,0,0,0,0,0
1553855705640.62,-50.7,0,0,0,0,0
1553855705656.25,-56.88,0,0,0,0,0
1553855705671.88,-61.22,0,0,0,0,0
1553855705687.5,-62.3,0,0,0,0,0
1553855705703.12,-59.06,0,0,0,0,0
1553855705718.75,-51.29,0,0,0,0,0
1553855705734.38,-39.74,0,0,0,0,0
1553855705750,-25.8,0,0,0,0,0
1553855705765.62,-11.01,0,0,0,0,0
1553855705781.25,3.44,0,0,0,0,0
1553855705796.88,16.94,0,0,0,0,0
1553855705812.5,29.33,0,0,0,0,0
1553855705828.12,40.49,0,0,0,0,0
1553855705843.75,50.13,0,0,0,0,0
1553855705859.38,57.73,0,0,0,0,0
1553855705875,62.82,0,0,0,0,0
1553855705890.62,65.33,0,0,0,0,0
1553855705906.25,65.66,0,0,0,0,0
1553855705921.88,64.58,0,0,0,0,0
1553855705937.5,62.92,0,0,0,0,0
1553855705953.12,61.29,0,0,0,0,0
1553855705968.75,59.88,0,0,0,0,0
1553855705984.38,58.64,0,0,0,0,0
1553855706000,57.34,0,0,0,0,0
1553855706015.62,55.95,0,0,0,0,0
1553855706031.25,54.59,0,0,0,0,0
1553855706046.88,53.36,0,0,0,0,0
1553855706062.5,52.22,0,0,0,0,0
1553855706078.12,50.76,0,0,0,0,0
1553855706093.75,48.45,0,0,0,0,0
1553855706109.38,44.77,0,0,0,0,0
1553855706125,39.59,0,0,0,0,0
1553855706140.62,33.4,0,0,0,0,0
1553855706156.25,27.04,0,0,0,0,0
1553855706171.88,21.58,0,0,0,0,0
1553855706187.5,17.78,0,0,0,0,0
1553855706203.12,15.89,0,0,0,0,0
1553855706218.75,15.54,0,0,0,0,0
1553855706234.38,15.87,0,0,0,0,0
1553855706250,15.76,0,0,0,0,0
1553855706265.62,14.09,0,0,0,0,0
1553855706281.25,10.04,0,0,0,0,0
1553855706296.88,3.2,0,0,0,0,0
1553855706312.5,-6.09,0,0,0,0,0
1553855706328.12,-16.83,0,0,0,0,0
1553855706343.75,-27.42,0,0,0,0,0
1553855706359.38,-36.12,0,0,0,0,0
1553855706375,-41.63,0,0,0,0,0
1553855706390.62,-43.4,0,0,0,0,0
1553855706406.25,-41.86,0,0,0,0,0
1553855706421.88,-38.07,0,0,0,0,0
1553855706437.5,-33.17,0,0,0,0,0
1553855706453.12,-28.04,0,0,0,0,0
1553855706468.75,-23.03,0,0,0,0,0
1553855706484.38,-18.11,0,0,0,0,0
1553855706500,-13.1,0,0,0,0,0
1553855706515.62,-7.9,0,0,0,0,0
1553855706531.25,-2.51,0,0,0,0,0
1553855706546.88,3.05,0,0,0,0,0
1553855706562.5,8.77,0,0,0,0,0
1553855706578.12,14.67,0,0,0,0,0
1553855706593.75,20.69,0,0,0,0,0
1553855706609.38,26.53,0,0,0,0,0
1553855706625,31.69,0,0,0,0,0
1553855706640.62,35.67,0,0,0,0,0
1553855706656.25,38.15,0,0,0,0,0
1553855706671.88,39.06,0,0,0,0,0
1553855706687.5,38.58,0,0,0,0,0
1553855706703.12,36.84,0,0,0,0,0
1553855706718.75,33.81,0,0,0,0,0
1553855706734.38,29.37,0,0,0,0,0
1553855706750,23.45,0,0,0,0,0
1553855706765.62,16.28,0,0,0,0,0
1553855706781.25,8.47,0,0,0,0,0
1553855706796.88,0.82,0,0,0,0,0
1553855706812.5,-5.91,0,0,0,0,0
1553855706828.12,-11.23,0,0,0,0,0
1553855706843.75,-14.99,0,0,0,0,0
1553855706859.38,-17.32,0,0,0,0,0
1553855706875,-18.53,0,0,0,0,0
1553855706890.62,-19.07,0,0,0,0,0
1553855706906.25,-19.56,0,0,0,0,0
1553855706921.88,-20.77,0,0,0,0,0
1553855706937.5,-23.57,0,0,0,0,0
1553855706953.12,-28.72,0,0,0,0,0
1553855706968.75,-36.52,0,0,0,0,0
1553855706984.38,-46.54,0,0,0,0,0
1553855707000,-57.51,0,0,0,0,0
1553855707015.62,-67.54,0,0,0,0,0
1553855707031.25,-74.61,0,0,0,0,0
1553855707046.88,-77.25,0,0,0,0,0
1553855707062.5,-74.98,0,0,0,0,0
1553855707078.12,-68.52,0,0,0,0,0
1553855707093.75,-59.39,0,0,0,0,0
1553855707109.38,-49.35,0,0,0,0,0
1553855707125,-39.63,0,0,0,0,0
1553855707140.62,-30.65,0,0,0,0,0
1553855707156.25,-22.15,0,0,0,0,0
1553855707171.88,-13.6,0,0,0,0,0
1553855707187.5,-4.7,0,0,0,0,0
1553855707203.12,4.41,0,0,0,0,0
1553855707218.75,13.24,0,0,0,0,0
1553855707234.38,21.26,0,0,0,0,0
1553855707250,28.15,0,0,0,0,0
1553855707265.62,33.86,0,0,0,0,0
1553855707281.25,38.61,0,0,0,0,0
1553855707296.88,42.66,0,0,0,0,0
1553855707312.5,46.23,0,0,0,0,0
1553855707328.12,49.35,0,0,0,0,0
1553855707343.75,51.92,0,0,0,0,0
1553855707359.38,53.63,0,0,0,0,0
1553855707375,54.14,0,0,0,0,0
1553855707390.62,53.14,0,0,0,0,0
1553855707406.25,50.6,0,0,0,0,0
1553855707421.88,46.82,0,0,0,0,0
1553855707437.5,42.48,0,0,0,0,0
1553855707453.12,38.41,0,0,0,0,0
1553855707468.75,35.28,0,0,0,0,0
1553855707484.38,33.42,0,0,0,0,0
1553855707500,32.62,0,0,0,0,0
1553855707515.62,32.39,0,0,0,0,0
1553855707531.25,32.1,0,0,0,0,0
1553855707546.88,31.31,0,0,0,0,0
1553855707562.5,29.9,0,0,0,0,0
1553855707578.12,27.99,0,0,0,0,0
1553855707593.75,25.82,0,0,0,0,0
1553855707609.38,23.52,0,0,0,0,0
1553855707625,21.05,0,0,0,0,0
1553855707640.62,18.25,0,0,0,0,0
1553855707656.25,14.85,0,0,0,0,0
1553855707671.88,10.64,0,0,0,0,0
1553855707687.5,5.58,0,0,0,0,0
1553855707703.12,-0.18,0,0,0,0,0
1553855707718.75,-6.14,0,0,0,0,0
1553855707734.38,-11.55,0,0,0,0,0
1553855707750,-15.47,0,0,0,0,0
1553855707765.62,-17.03,0,0,0,0,0
1553855707781.25,-15.79,0,0,0,0,0
1553855707796.88,-11.98,0,0,0,0,0
1553855707812.5,-6.36,0,0,0,0,0
1553855707828.12,0.02,0,0,0,0,0
1553855707843.75,6.33,0,0,0,0,0
1553855707859.38,12.16,0,0,0,0,0
1553855707875,17.58,0,0,0,0,0
1553855707890.62,22.79,0,0,0,0,0
1553855707906.25,27.83,0,0,0,0,0
1553855707921.88,32.4,0,0,0,0,0
1553855707937.5,36.04,0,0,0,0,0
1553855707953.12,38.38,0,0,0,0,0
1553855707968.75,39.44,0,0,0,0,0
1553855707984.38,39.57,0,0,0,0,0
1553855708000,39.32,0,0,0,0,0
1553855708015.62,39.1,0,0,0,0,0
1553855708031.25,39.02,0,0,0,0,0
1553855708046.88,38.87,0,0,0,0,0
1553855708062.5,38.32,0,0,0,0,0
1553855708078.12,37.14,0,0,0,0,0
1553855708093.75,35.28,0,0,0,0,0
1553855708109.38,32.95,0,0,0,0,0
1553855708125,30.37,0,0,0,0,0
1553855708140.62,27.76,0,0,0,0,0
1553855708156.25,25.18,0,0,0,0,0
1553855708171.88,22.54,0,0,0,0,0
1553855708187.5,19.71,0,0,0,0,0
1553855708203.12,16.61,0,0,0,0,0
1553855708218.75,13.28,0,0,0,0,0
1553855708234.38,9.85,0,0,0,0,0
1553855708250,6.39,0,0,0,0,0
1553855708265.62,2.88,0,0,0,0,0
1553855708281.25,-0.75,0,0,0,0,0
1553855708296.88,-4.62,0,0,0,0,0
1553855708312.5,-8.6,0,0,0,0,0
1553855708328.12,-12.42,0,0,0,0,0
1553855708343.75,-15.72,0,0,0,0,0
1553855708359.38,-18.35,0,0,0,0,0
1553855708375,-20.44,0,0,0,0,0
1553855708390.62,-22.48,0,0,0,0,0
1553855708406.25,-25.08,0,0,0,0,0
1553855708421.88,-28.67,0,0,0,0,0
1553855708437.5,-33.23,0,0,0,0,0
1553855708453.12,-38.2,0,0,0,0,0
1553855708468.75,-42.61,0,0,0,0,0
1553855708484.38,-45.43,0,0,0,0,0
1553855708500,-45.93,0,0,0,0,0
1553855708515.62,-43.84,0,0,0,0,0
1553855708531.25,-39.42,0,0,0,0,0
1553855708546.88,-33.37,0,0,0,0,0
1553855708562.5,-26.48,0,0,0,0,0
1553855708578.12,-19.49,0,0,0,0,0
1553855708593.75,-12.99,0,0,0,0,0
1553855708609.38,-7.33,0,0,0,0,0
1553855708625,-2.67,0,0,0,0,0
1553855708640.62,1.02,0,0,0,0,0
1553855708656.25,3.91,0,0,0,0,0
1553855708671.88,6.34,0,0,0,0,0
1553855708687.5,8.65,0,0,0,0,0
1553855708703.12,11.05,0,0,0,0,0
1553855708718.75,13.53,0,0,0,0,0
1553855708734.38,15.86,0,0,0,0,0
1553855708750,17.73,0,0,0,0,0
1553855708765.62,18.95,0,0,0,0,0
1553855708781.25,19.6,0,0,0,0,0
1553855708796.88,19.92,0,0,0,0,0
1553855708812.5,20.2,0,0,0,0,0
1553855708828.12,20.53,0,0,0,0,0
1553855708843.75,20.79,0,0,0,0,0
1553855708859.38,20.69,0,0,0,0,0
1553855708875,20.03,0,0,0,0,0
1553855708890.62,18.81,0,0,0,0,0
1553855708906.25,17.33,0,0,0,0,0
1553855708921.88,15.92,0,0,0,0,0
1553855708937.5,14.77,0,0,0,0,0
1553855708953.12,13.91,0,0,0,0,0
1553855708968.75,13.12,0,0,0,0,0
1553855708984.38,12.09,0,0,0,0,0
1553855709000,10.64,0,0,0,0,0
1553855709015.62,8.69,0,0,0,0,0
1553855709031.25,6.34,0,0,0,0,0
1553855709046.88,3.69,0,0,0,0,0
1553855709062.5,0.88,0,0,0,0,0
1553855709078.12,-1.99,0,0,0,0,0
1553855709093.75,-4.8,0,0,0,0,0
1553855709109.38,-7.49,0,0,0,0,0
1553855709125,-10.01,0,0,0,0,0
1553855709140.62,-12.4,0,0,0,0,0
1553855709156.25,-14.81,0,0,0,0,0
1553855709171.88,-17.5,0,0,0,0,0
1553855709187.5,-20.72,0,0,0,0,0
1553855709203.12,-24.6,0,0,0,0,0
1553855709218.75,-29.1,0,0,0,0,0
1553855709234.38,-33.95,0,0,0,0,0
1553855709250,-38.6,0,0,0,0,0
1553855709265.62,-42.36,0,0,0,0,0
1553855709281.25,-44.4,0,0,0,0,0
1553855709296.88,-44.1,0,0,0,0,0
1553855709312.5,-41.25,0,0,0,0,0
1553855709328.12,-36.2,0,0,0,0,0
1553855709343.75,-29.83,0,0,0,0,0
1553855709359.38,-23.37,0,0,0,0,0
1553855709375,-17.9,0,0,0,0,0
1553855709390.62,-13.96,0,0,0,0,0
1553855709406.25,-11.46,0,0,0,0,0
1553855709421.88,-9.79,0,0,0,0,0
1553855709437.5,-8.19,0,0,0,0,0
1553855709453.12,-6.1,0,0,0,0,0
1553855709468.75,-3.35,0,0,0,0,0
1553855709484.38,-0.11,0,0,0,0,0
1553855709500,3.39,0,0,0,0,0
1553855709515.62,6.99,0,0,0,0,0
1553855709531.25,10.64,0,0,0,0,0
1553855709546.88,14.26,0,0,0,0,0
1553855709562.5,17.6,0,0,0,0,0
1553855709578.12,20.18,0,0,0,0,0
1553855709593.75,21.43,0,0,0,0,0
1553855709609.38,20.97,0,0,0,0,0
1553855709625,18.83,0,0,0,0,0
1553855709640.62,15.46,0,0,0,0,0
1553855709656.25,11.62,0,0,0,0,0
1553855709671.88,8.07,0,0,0,0,0
1553855709687.5,5.41,0,0,0,0,0
1553855709703.12,3.84,0,0,0,0,0
1553855709718.75,3.21,0,0,0,0,0
1553855709734.38,3.03,0,0,0,0,0
1553855709750,2.75,0,0,0,0,0
1553855709765.62,1.89,0,0,0,0,0
1553855709781.25,0.25,0,0,0,0,0
1553855709796.88,-2.03,0,0,0,0,0
1553855709812.5,-4.48,0,0,0,0,0
1553855709828.12,-6.56,0,0,0,0,0
1553855709843.75,-7.85,0,0,0,0,0
1553855709859.38,-8.36,0,0,0,0,0
1553855709875,-8.55,0,0,0,0,0
1553855709890.62,-9.13,0,0,0,0,0
1553855709906.25,-10.8,0,0,0,0,0
1553855709921.88,-13.87,0,0,0,0,0
1553855709937.5,-18.21,0,0,0,0,0
1553855709953.12,-23.26,0,0,0,0,0
1553855709968.75,-28.26,0,0,0,0,0
1553855709984.38,-32.39,0,0,0,0,0
1553855710000,-34.93,0,0,0,0,0
1553855710015.62,-35.35,0,0,0,0,0
1553855710031.25,-33.38,0,0,0,0,0
1553855710046.88,-29.18,0,0,0,0,0
1553855710062.5,-23.38,0,0,0,0,0
1553855710078.12,-16.94,0,0,0,0,0
1553855710093.75,-10.91,0,0,0,0,0
1553855710109.38,-6.09,0,0,0,0,0
1553855710125,-2.68,0,0,0,0,0
1553855710140.62,-0.29,0,0,0,0,0
1553855710156.25,1.83,0,0,0,0,0
1553855710171.88,4.42,0,0,0,0,0
1553855710187.5,7.83,0,0,0,0,0
1553855710203.12,11.93,0,0,0,0,0
1553855710218.75,16.19,0,0,0,0,0
1553855710234.38,19.96,0,0,0,0,0
1553855710250,22.69,0,0,0,0,0
1553855710265.62,24.1,0,0,0,0,0
1553855710281.25,24.18,0,0,0,0,0
1553855710296.88,23.12,0,0,0,0,0
1553855710312.5,21.23,0,0,0,0,0
1553855710328.12,18.81,0,0,0,0,0
1553855710343.75,16.11,0,0,0,0,0
1553855710359.38,13.3,0,0,0,0,0
1553855710375,10.51,0,0,0,0,0
1553855710390.62,7.86,0,0,0,0,0
1553855710406.25,5.47,0,0,0,0,0
1553855710421.88,3.47,0,0,0,0,0
1553855710437.5,1.9,0,0,0,0,0
1553855710453.12,0.66,0,0,0,0,0
1553855710468.75,-0.46,0,0,0,0,0
1553855710484.38,-1.77,0,0,0,0,0
1553855710500,-3.41,0,0,0,0,0
1553855710515.62,-5.4,0,0,0,0,0
1553855710531.25,-7.58,0,0,0,0,0
1553855710546.88,-9.75,0,0,0,0,0
1553855710562.5,-11.8,0,0,0,0,0
1553855710578.12,-13.82,0,0,0,0,0
1553855710593.75,-16.05,0,0,0,0,0
1553855710609.38,-18.77,0,0,0,0,0
1553855710625,-22.26,0,0,0,0,0
1553855710640.62,-26.59,0,0,0,0,0
1553855710656.25,-31.64,0,0,0,0,0
1553855710671.88,-37.1,0,0,0,0,0
1553855710687.5,-42.54,0,0,0,0,0
1553855710703.12,-47.39,0,0,0,0,0
1553855710718.75,-50.96,0,0,0,0,0
1553855710734.38,-52.47,0,0,0,0,0
1553855710750,-51.25,0,0,0,0,0
1553855710765.62,-46.92,0,0,0,0,0
1553855710781.25,-39.52,0,0,0,0,0
1553855710796.88,-29.55,0,0,0,0,0
1553855710812.5,-17.86,0,0,0,0,0
1553855710828.12,-5.32,0,0,0,0,0
1553855710843.75,7.33,0,0,0,0,0
1553855710859.38,19.7,0,0,0,0,0
1553855710875,31.49,0,0,0,0,0
1553855710890.62,42.4,0,0,0,0,0
1553855710906.25,51.91,0,0,0,0,0
1553855710921.88,59.33,0,0,0,0,0
1553855710937.5,63.97,0,0,0,0,0
1553855710953.12,65.55,0,0,0,0,0
1553855710968.75,64.35,0,0,0,0,0
1553855710984.38,61.26,0,0,0,0,0
1553855711000,57.41,0,0,0,0,0
1553855711015.62,53.79,0,0,0,0,0
1553855711031.25,50.95,0,0,0,0,0
1553855711046.88,48.88,0,0,0,0,0
1553855711062.5,47.21,0,0,0,0,0
1553855711078.12,45.46,0,0,0,0,0
1553855711093.75,43.29,0,0,0,0,0
1553855711109.38,40.62,0,0,0,0,0
1553855711125,37.59,0,0,0,0,0
1553855711140.62,34.43,0,0,0,0,0
1553855711156.25,31.31,0,0,0,0,0
1553855711171.88,28.35,0,0,0,0,0
1553855711187.5,25.56,0,0,0,0,0
1553855711203.12,22.9,0,0,0,0,0
1553855711218.75,20.27,0,0,0,0,0
1553855711234.38,17.57,0,0,0,0,0
1553855711250,14.74,0,0,0,0,0
1553855711265.62,11.76,0,0,0,0,0
1553855711281.25,8.7,0,0,0,0,0
1553855711296.88,5.69,0,0,0,0,0
1553855711312.5,2.77,0,0,0,0,0
1553855711328.12,-0.12,0,0,0,0,0
1553855711343.75,-3.23,0,0,0,0,0
1553855711359.38,-6.88,0,0,0,0,0
1553855711375,-11.43,0,0,0,0,0
1553855711390.62,-17.09,0,0,0,0,0
1553855711406.25,-23.96,0,0,0,0,0
1553855711421.88,-31.87,0,0,0,0,0
1553855711437.5,-40.37,0,0,0,0,0
1553855711453.12,-48.61,0,0,0,0,0
1553855711468.75,-55.48,0,0,0,0,0
1553855711484.38,-59.76,0,0,0,0,0
1553855711500,-60.53,0,0,0,0,0
1553855711515.62,-57.58,0,0,0,0,0
1553855711531.25,-51.51,0,0,0,0,0
1553855711546.88,-43.61,0,0,0,0,0
1553855711562.5,-35.43,0,0,0,0,0
1553855711578.12,-28.23,0,0,0,0,0
1553855711593.75,-22.7,0,0,0,0,0
1553855711609.38,-18.79,0,0,0,0,0
1553855711625,-16.03,0,0,0,0,0
1553855711640.62,-13.74,0,0,0,0,0
1553855711656.25,-11.32,0,0,0,0,0
1553855711671.88,-8.47,0,0,0,0,0
1553855711687.5,-5.14,0,0,0,0,0
1553855711703.12,-1.48,0,0,0,0,0
1553855711718.75,2.25,0,0,0,0,0
1553855711734.38,5.71,0,0,0,0,0
1553855711750,8.67,0,0,0,0,0
1553855711765.62,10.94,0,0,0,0,0
1553855711781.25,12.44,0,0,0,0,0
1553855711796.88,13.12,0,0,0,0,0
1553855711812.5,12.91,0,0,0,0,0
1553855711828.12,11.85,0,0,0,0,0
1553855711843.75,10.1,0,0,0,0,0
1553855711859.38,8.03,0,0,0,0,0
1553855711875,6.19,0,0,0,0,0
1553855711890.62,5.23,0,0,0,0,0
1553855711906.25,5.67,0,0,0,0,0
1553855711921.88,7.72,0,0,0,0,0
1553855711937.5,11.15,0,0,0,0,0
1553855711953.12,15.33,0,0,0,0,0
1553855711968.75,19.4,0,0,0,0,0
1553855711984.38,22.56,0,0,0,0,0
1553855712000,24.36,0,0,0,0,0
1553855712015.62,24.76,0,0,0,0,0
1553855712031.25,23.95,0,0,0,0,0
1553855712046.88,22.08,0,0,0,0,0
1553855712062.5,19.01,0,0,0,0,0
1553855712078.12,14.28,0,0,0,0,0
1553855712093.75,7.54,0,0,0,0,0
1553855712109.38,-1.04,0,0,0,0,0
1553855712125,-10.49,0,0,0,0,0
1553855712140.62,-19.26,0,0,0,0,0
1553855712156.25,-25.83,0,0,0,0,0
1553855712171.88,-29.39,0,0,0,0,0
1553855712187.5,-30.01,0,0,0,0,0
1553855712203.12,-28.32,0,0,0,0,0
1553855712218.75,-24.83,0,0,0,0,0
1553855712234.38,-19.64,0,0,0,0,0
1553855712250,-12.54,0,0,0,0,0
1553855712265.62,-3.71,0,0,0,0,0
1553855712281.25,5.76,0,0,0,0,0
1553855712296.88,13.9,0,0,0,0,0
1553855712312.5,18.62,0,0,0,0,0
1553855712328.12,18.76,0,0,0,0,0
1553855712343.75,14.82,0,0,0,0,0
1553855712359.38,8.84,0,0,0,0,0
1553855712375,3.42,0,0,0,0,0
1553855712390.62,0.6,0,0,0,0,0
1553855712406.25,1.05,0,0,0,0,0
1553855712421.88,4.08,0,0,0,0,0
1553855712437.5,8.35,0,0,0,0,0
1553855712453.12,12.72,0,0,0,0,0
1553855712468.75,16.8,0,0,0,0,0
1553855712484.38,20.77,0,0,0,0,0
1553855712500,24.87,0,0,0,0,0
1553855712515.62,28.89,0,0,0,0,0
1553855712531.25,31.91,0,0,0,0,0
1553855712546.88,32.76,0,0,0,0,0
1553855712562.5,30.54,0,0,0,0,0
1553855712578.12,25.3,0,0,0,0,0
1553855712593.75,18.13,0,0,0,0,0
1553855712609.38,10.74,0,0,0,0,0
1553855712625,4.73,0,0,0,0,0
1553855712640.62,0.88,0,0,0,0,0
1553855712656.25,-1.2,0,0,0,0,0
1553855712671.88,-2.92,0,0,0,0,0
1553855712687.5,-6.02,0,0,0,0,0
1553855712703.12,-11.9,0,0,0,0,0
1553855712718.75,-21,0,0,0,0,0
1553855712734.38,-32.72,0,0,0,0,0
1553855712750,-45.77,0,0,0,0,0
1553855712765.62,-58.81,0,0,0,0,0
1553855712781.25,-71.06,0,0,0,0,0
1553855712796.88,-82.55,0,0,0,0,0
1553855712812.5,-93.97,0,0,0,0,0
1553855712828.12,-105.96,0,0,0,0,0
1553855712843.75,-118.4,0,0,0,0,0
1553855712859.38,-129.98,0,0,0,0,0
1553855712875,-138.36,0,0,0,0,0
1553855712890.62,-140.93,0,0,0,0,0
1553855712906.25,-135.64,0,0,0,0,0
1553855712921.88,-121.76,0,0,0,0,0
1553855712937.5,-100.3,0,0,0,0,0
1553855712953.12,-74.12,0,0,0,0,0
1553855712968.75,-47.78,0,0,0,0,0
1553855712984.38,-26.9,0,0,0,0,0
1553855713000,-16.94,0,0,0,0,0
1553855713015.62,-21.6,0,0,0,0,0
1553855713031.25,-41.29,0,0,0,0,0
1553855713046.88,-72.37,0,0,0,0,0
1553855713062.5,-107.48,0,0,0,0,0
1553855713078.12,-137.36,0,0,0,0,0
1553855713093.75,-153.41,0,0,0,0,0
1553855713109.38,-150.18,0,0,0,0,0
1553855713125,-127.01,0,0,0,0,0
1553855713140.62,-88.03,0,0,0,0,0
1553855713156.25,-40.56,0,0,0,0,0
1553855713171.88,7.25,0,0,0,0,0
1553855713187.5,48.76,0,0,0,0,0
1553855713203.12,80.2,0,0,0,0,0
1553855713218.75,100.92,0,0,0,0,0
1553855713234.38,112.45,0,0,0,0,0
1553855713250,117.35,0,0,0,0,0
1553855713265.62,118.01,0,0,0,0,0
1553855713281.25,116.28,0,0,0,0,0
1553855713296.88,113.46,0,0,0,0,0
1553855713312.5,110.64,0,0,0,0,0
1553855713328.12,108.81,0,0,0,0,0
1553855713343.75,108.47,0,0,0,0,0
1553855713359.38,109.38,0,0,0,0,0
1553855713375,110.39,0,0,0,0,0
1553855713390.62,109.88,0,0,0,0,0
1553855713406.25,106.5,0,0,0,0,0
1553855713421.88,99.81,0,0,0,0,0
1553855713437.5,90.6,0,0,0,0,0
1553855713453.12,80.52,0,0,0,0,0
1553855713468.75,71.53,0,0,0,0,0
1553855713484.38,65.09,0,0,0,0,0
1553855713500,61.61,0,0,0,0,0
1553855713515.62,60.44,0,0,0,0,0
1553855713531.25,60.14,0,0,0,0,0
1553855713546.88,59.14,0,0,0,0,0
1553855713562.5,56.43,0,0,0,0,0
1553855713578.12,51.86,0,0,0,0,0
1553855713593.75,46.18,0,0,0,0,0
1553855713609.38,40.58,0,0,0,0,0
1553855713625,36.12,0,0,0,0,0
1553855713640.62,33.33,0,0,0,0,0
1553855713656.25,31.99,0,0,0,0,0
1553855713671.88,31.42,0,0,0,0,0
1553855713687.5,30.82,0,0,0,0,0
1553855713703.12,29.78,0,0,0,0,0
1553855713718.75,28.4,0,0,0,0,0
1553855713734.38,27.15,0,0,0,0,0
1553855713750,26.52,0,0,0,0,0
1553855713765.62,26.6,0,0,0,0,0
1553855713781.25,27.01,0,0,0,0,0
1553855713796.88,26.98,0,0,0,0,0
1553855713812.5,25.79,0,0,0,0,0
1553855713828.12,23,0,0,0,0,0
1553855713843.75,18.69,0,0,0,0,0
1553855713859.38,13.37,0,0,0,0,0
1553855713875,7.63,0,0,0,0,0
1553855713890.62,1.95,0,0,0,0,0
1553855713906.25,-3.43,0,0,0,0,0
1553855713921.88,-8.63,0,0,0,0,0
1553855713937.5,-13.93,0,0,0,0,0
1553855713953.12,-19.64,0,0,0,0,0
1553855713968.75,-26.09,0,0,0,0,0
1553855713984.38,-33.41,0,0,0,0,0
1553855714000,-41.5,0,0,0,0,0
1553855714015.62,-49.79,0,0,0,0,0
1553855714031.25,-57.36,0,0,0,0,0
1553855714046.88,-63.08,0,0,0,0,0
1553855714062.5,-65.95,0,0,0,0,0
1553855714078.12,-65.57,0,0,0,0,0
1553855714093.75,-62.21,0,0,0,0,0
1553855714109.38,-56.79,0,0,0,0,0
1553855714125,-50.47,0,0,0,0,0
1553855714140.62,-44.14,0,0,0,0,0
1553855714156.25,-38.2,0,0,0,0,0
1553855714171.88,-32.45,0,0,0,0,0
1553855714187.5,-26.39,0,0,0,0,0
1553855714203.12,-19.56,0,0,0,0,0
1553855714218.75,-11.89,0,0,0,0,0
1553855714234.38,-3.83,0,0,0,0,0
1553855714250,3.6,0,0,0,0,0
1553855714265.62,9.23,0,0,0,0,0
1553855714281.25,12.12,0,0,0,0,0
1553855714296.88,12.11,0,0,0,0,0
1553855714312.5,10.13,0,0,0,0,0
1553855714328.12,8.09,0,0,0,0,0
1553855714343.75,8.2,0,0,0,0,0
1553855714359.38,12.16,0,0,0,0,0
1553855714375,20.34,0,0,0,0,0
1553855714390.62,31.42,0,0,0,0,0
1553855714406.25,43.04,0,0,0,0,0
1553855714421.88,52.56,0,0,0,0,0
1553855714437.5,57.98,0,0,0,0,0
1553855714453.12,58.57,0,0,0,0,0
1553855714468.75,54.72,0,0,0,0,0
1553855714484.38,47.46,0,0,0,0,0
1553855714500,37.97,0,0,0,0,0
1553855714515.62,27.29,0,0,0,0,0
1553855714531.25,16.34,0,0,0,0,0
1553855714546.88,6.03,0,0,0,0,0
1553855714562.5,-2.68,0,0,0,0,0
1553855714578.12,-9.05,0,0,0,0,0
1553855714593.75,-12.81,0,0,0,0,0
1553855714609.38,-14.37,0,0,0,0,0
1553855714625,-14.7,0,0,0,0,0
1553855714640.62,-14.94,0,0,0,0,0
1553855714656.25,-16,0,0,0,0,0
1553855714671.88,-18.28,0,0,0,0,0
1553855714687.5,-21.67,0,0,0,0,0
1553855714703.12,-25.84,0,0,0,0,0
1553855714718.75,-30.54,0,0,0,0,0
1553855714734.38,-35.74,0,0,0,0,0
1553855714750,-41.67,0,0,0,0,0
1553855714765.62,-48.55,0,0,0,0,0
1553855714781.25,-56.36,0,0,0,0,0
1553855714796.88,-64.61,0,0,0,0,0
1553855714812.5,-72.31,0,0,0,0,0
1553855714828.12,-78.12,0,0,0,0,0
1553855714843.75,-80.58,0,0,0,0,0
1553855714859.38,-78.54,0,0,0,0,0
1553855714875,-71.42,0,0,0,0,0
1553855714890.62,-59.54,0,0,0,0,0
1553855714906.25,-44.12,0,0,0,0,0
1553855714921.88,-27.04,0,0,0,0,0
1553855714937.5,-10.46,0,0,0,0,0
1553855714953.12,3.84,0,0,0,0,0
1553855714968.75,14.79,0,0,0,0,0
1553855714984.38,22.2,0,0,0,0,0
1553855715000,26.51,0,0,0,0,0
1553855715015.62,28.43,0,0,0,0,0
1553855715031.25,28.58,0,0,0,0,0
1553855715046.88,27.38,0,0,0,0,0
1553855715062.5,25.11,0,0,0,0,0
1553855715078.12,22.15,0,0,0,0,0
1553855715093.75,19.04,0,0,0,0,0
1553855715109.38,16.41,0,0,0,0,0
1553855715125,14.6,0,0,0,0,0
1553855715140.62,13.44,0,0,0,0,0
1553855715156.25,12.37,0,0,0,0,0
1553855715171.88,10.75,0,0,0,0,0
1553855715187.5,8.42,0,0,0,0,0
1553855715203.12,5.92,0,0,0,0,0
1553855715218.75,4.27,0,0,0,0,0
1553855715234.38,4.48,0,0,0,0,0
1553855715250,6.94,0,0,0,0,0
1553855715265.62,11.23,0,0,0,0,0
1553855715281.25,16.25,0,0,0,0,0
1553855715296.88,20.76,0,0,0,0,0
1553855715312.5,23.88,0,0,0,0,0
1553855715328.12,25.2,0,0,0,0,0
1553855715343.75,24.76,0,0,0,0,0
1553855715359.38,22.7,0,0,0,0,0
1553855715375,19.21,0,0,0,0,0
1553855715390.62,14.51,0,0,0,0,0
1553855715406.25,8.96,0,0,0,0,0
1553855715421.88,3.07,0,0,0,0,0
1553855715437.5,-2.63,0,0,0,0,0
1553855715453.12,-7.84,0,0,0,0,0
1553855715468.75,-12.57,0,0,0,0,0
1553855715484.38,-17.03,0,0,0,0,0
1553855715500,-21.37,0,0,0,0,0
1553855715515.62,-25.44,0,0,0,0,0
1553855715531.25,-28.7,0,0,0,0,0
1553855715546.88,-30.45,0,0,0,0,0
1553855715562.5,-30.01,0,0,0,0,0
1553855715578.12,-27.13,0,0,0,0,0
1553855715593.75,-22.02,0,0,0,0,0
1553855715609.38,-15.41,0,0,0,0,0
1553855715625,-8.26,0,0,0,0,0
1553855715640.62,-1.59,0,0,0,0,0
1553855715656.25,3.9,0,0,0,0,0
1553855715671.88,7.98,0,0,0,0,0
1553855715687.5,10.96,0,0,0,0,0
1553855715703.12,13.45,0,0,0,0,0
1553855715718.75,16.01,0,0,0,0,0
1553855715734.38,18.79,0,0,0,0,0
1553855715750,21.35,0,0,0,0,0
1553855715765.62,22.95,0,0,0,0,0
1553855715781.25,22.99,0,0,0,0,0
1553855715796.88,21.37,0,0,0,0,0
1553855715812.5,18.61,0,0,0,0,0
1553855715828.12,15.62,0,0,0,0,0
1553855715843.75,13.28,0,0,0,0,0
1553855715859.38,12.06,0,0,0,0,0
1553855715875,11.85,0,0,0,0,0
1553855715890.62,12.2,0,0,0,0,0
1553855715906.25,12.53,0,0,0,0,0
1553855715921.88,12.38,0,0,0,0,0
1553855715937.5,11.58,0,0,0,0,0
1553855715953.12,10.19,0,0,0,0,0
1553855715968.75,8.37,0,0,0,0,0
1553855715984.38,6.3,0,0,0,0,0
1553855716000,3.96,0,0,0,0,0
1553855716015.62,1.23,0,0,0,0,0
1553855716031.25,-2.08,0,0,0,0,0
1553855716046.88,-6.1,0,0,0,0,0
1553855716062.5,-10.83,0,0,0,0,0
1553855716078.12,-16.17,0,0,0,0,0
1553855716093.75,-21.95,0,0,0,0,0
1553855716109.38,-28.11,0,0,0,0,0
1553855716125,-34.56,0,0,0,0,0
1553855716140.62,-41.01,0,0,0,0,0
1553855716156.25,-46.75,0,0,0,0,0
1553855716171.88,-50.71,0,0,0,0,0
1553855716187.5,-51.72,0,0,0,0,0
1553855716203.12,-49.04,0,0,0,0,0
1553855716218.75,-42.78,0,0,0,0,0
1553855716234.38,-33.88,0,0,0,0,0
1553855716250,-23.93,0,0,0,0,0
1553855716265.62,-14.55,0,0,0,0,0
1553855716281.25,-6.79,0,0,0,0,0
1553855716296.88,-1.04,0,0,0,0,0
1553855716312.5,2.99,0,0,0,0,0
1553855716328.12,5.88,0,0,0,0,0
1553855716343.75,8.22,0,0,0,0,0
1553855716359.38,10.34,0,0,0,0,0
1553855716375,12.39,0,0,0,0,0
1553855716390.62,14.39,0,0,0,0,0
1553855716406.25,16.21,0,0,0,0,0
1553855716421.88,17.74,0,0,0,0,0
1553855716437.5,18.89,0,0,0,0,0
1553855716453.12,19.57,0,0,0,0,0
1553855716468.75,19.86,0,0,0,0,0
1553855716484.38,19.97,0,0,0,0,0
1553855716500,20.2,0,0,0,0,0
1553855716515.62,20.82,0,0,0,0,0
1553855716531.25,21.86,0,0,0,0,0
1553855716546.88,23.06,0,0,0,0,0
1553855716562.5,23.88,0,0,0,0,0
1553855716578.12,23.77,0,0,0,0,0
1553855716593.75,22.38,0,0,0,0,0
1553855716609.38,19.67,0,0,0,0,0
1553855716625,15.97,0,0,0,0,0
1553855716640.62,11.82,0,0,0,0,0
1553855716656.25,7.8,0,0,0,0,0
1553855716671.88,4.32,0,0,0,0,0
1553855716687.5,1.58,0,0,0,0,0
1553855716703.12,-0.61,0,0,0,0,0
1553855716718.75,-2.68,0,0,0,0,0
1553855716734.38,-5.26,0,0,0,0,0
1553855716750,-8.98,0,0,0,0,0
1553855716765.62,-14.19,0,0,0,0,0
1553855716781.25,-20.72,0,0,0,0,0
1553855716796.88,-27.82,0,0,0,0,0
1553855716812.5,-34.27,0,0,0,0,0
1553855716828.12,-38.77,0,0,0,0,0
1553855716843.75,-40.25,0,0,0,0,0
1553855716859.38,-38.4,0,0,0,0,0
1553855716875,-33.7,0,0,0,0,0
1553855716890.62,-27.23,0,0,0,0,0
1553855716906.25,-20.31,0,0,0,0,0
1553855716921.88,-14.03,0,0,0,0,0
1553855716937.5,-8.92,0,0,0,0,0
1553855716953.12,-4.98,0,0,0,0,0
1553855716968.75,-1.91,0,0,0,0,0
1553855716984.38,0.69,0,0,0,0,0
1553855717000,3.06,0,0,0,0,0
1553855717015.62,5.24,0,0,0,0,0
1553855717031.25,7.19,0,0,0,0,0
1553855717046.88,8.9,0,0,0,0,0
1553855717062.5,10.47,0,0,0,0,0
1553855717078.12,11.95,0,0,0,0,0
1553855717093.75,13.35,0,0,0,0,0
1553855717109.38,14.58,0,0,0,0,0
1553855717125,15.51,0,0,0,0,0
1553855717140.62,16.12,0,0,0,0,0
1553855717156.25,16.58,0,0,0,0,0
1553855717171.88,17.18,0,0,0,0,0
1553855717187.5,18.11,0,0,0,0,0
1553855717203.12,19.33,0,0,0,0,0
1553855717218.75,20.52,0,0,0,0,0
1553855717234.38,21.22,0,0,0,0,0
1553855717250,20.99,0,0,0,0,0
1553855717265.62,19.67,0,0,0,0,0
1553855717281.25,17.33,0,0,0,0,0
1553855717296.88,14.19,0,0,0,0,0
1553855717312.5,10.46,0,0,0,0,0
1553855717328.12,6.2,0,0,0,0,0
1553855717343.75,1.45,0,0,0,0,0
1553855717359.38,-3.72,0,0,0,0,0
1553855717375,-9.09,0,0,0,0,0
1553855717390.62,-14.38,0,0,0,0,0
1553855717406.25,-19.43,0,0,0,0,0
1553855717421.88,-24.23,0,0,0,0,0
1553855717437.5,-28.74,0,0,0,0,0
1553855717453.12,-32.71,0,0,0,0,0
1553855717468.75,-35.53,0,0,0,0,0
1553855717484.38,-36.38,0,0,0,0,0
1553855717500,-34.67,0,0,0,0,0
1553855717515.62,-30.45,0,0,0,0,0
1553855717531.25,-24.5,0,0,0,0,0
1553855717546.88,-18.03,0,0,0,0,0
1553855717562.5,-12.15,0,0,0,0,0
1553855717578.12,-7.36,0,0,0,0,0
1553855717593.75,-3.47,0,0,0,0,0
1553855717609.38,0.04,0,0,0,0,0
1553855717625,3.62,0,0,0,0,0
1553855717640.62,7.26,0,0,0,0,0
1553855717656.25,10.65,0,0,0,0,0
1553855717671.88,13.35,0,0,0,0,0
1553855717687.5,15.16,0,0,0,0,0
1553855717703.12,16.17,0,0,0,0,0
1553855717718.75,16.65,0,0,0,0,0
1553855717734.38,16.88,0,0,0,0,0
1553855717750,16.97,0,0,0,0,0
1553855717765.62,16.94,0,0,0,0,0
1553855717781.25,16.77,0,0,0,0,0
1553855717796.88,16.53,0,0,0,0,0
1553855717812.5,16.4,0,0,0,0,0
1553855717828.12,16.53,0,0,0,0,0
1553855717843.75,16.92,0,0,0,0,0
1553855717859.38,17.43,0,0,0,0,0
1553855717875,17.7,0,0,0,0,0
1553855717890.62,17.36,0,0,0,0,0
1553855717906.25,16.09,0,0,0,0,0
1553855717921.88,13.77,0,0,0,0,0
1553855717937.5,10.54,0,0,0,0,0
1553855717953.12,6.77,0,0,0,0,0
1553855717968.75,2.95,0,0,0,0,0
1553855717984.38,-0.48,0,0,0,0,0
1553855718000,-3.23,0,0,0,0,0
1553855718015.62,-5.24,0,0,0,0,0
1553855718031.25,-6.79,0,0,0,0,0
1553855718046.88,-8.45,0,0,0,0,0
1553855718062.5,-10.88,0,0,0,0,0
1553855718078.12,-14.57,0,0,0,0,0
1553855718093.75,-19.59,0,0,0,0,0
1553855718109.38,-25.4,0,0,0,0,0
1553855718125,-30.93,0,0,0,0,0
1553855718140.62,-34.83,0,0,0,0,0
1553855718156.25,-35.95,0,0,0,0,0
1553855718171.88,-33.78,0,0,0,0,0
1553855718187.5,-28.43,0,0,0,0,0
1553855718203.12,-20.75,0,0,0,0,0
1553855718218.75,-11.95,0,0,0,0,0
1553855718234.38,-3.36,0,0,0,0,0
1553855718250,3.9,0,0,0,0,0
1553855718265.62,9.08,0,0,0,0,0
1553855718281.25,11.94,0,0,0,0,0
1553855718296.88,12.85,0,0,0,0,0
1553855718312.5,12.61,0,0,0,0,0
1553855718328.12,12.25,0,0,0,0,0
1553855718343.75,12.66,0,0,0,0,0
1553855718359.38,14.33,0,0,0,0,0
1553855718375,17.14,0,0,0,0,0
1553855718390.62,20.5,0,0,0,0,0
1553855718406.25,23.51,0,0,0,0,0
1553855718421.88,25.4,0,0,0,0,0
1553855718437.5,25.71,0,0,0,0,0
1553855718453.12,24.53,0,0,0,0,0
1553855718468.75,22.4,0,0,0,0,0
1553855718484.38,20.19,0,0,0,0,0
1553855718500,18.84,0,0,0,0,0
1553855718515.62,19.06,0,0,0,0,0
1553855718531.25,21.03,0,0,0,0,0
1553855718546.88,24.31,0,0,0,0,0
1553855718562.5,27.91,0,0,0,0,0
1553855718578.12,30.63,0,0,0,0,0
1553855718593.75,31.5,0,0,0,0,0
1553855718609.38,30.11,0,0,0,0,0
1553855718625,26.79,0,0,0,0,0
1553855718640.62,22.37,0,0,0,0,0
1553855718656.25,17.71,0,0,0,0,0
1553855718671.88,13.33,0,0,0,0,0
1553855718687.5,9.12,0,0,0,0,0
1553855718703.12,4.52,0,0,0,0,0
1553855718718.75,-1.12,0,0,0,0,0
1553855718734.38,-8.06,0,0,0,0,0
1553855718750,-15.84,0,0,0,0,0
1553855718765.62,-23.42,0,0,0,0,0
1553855718781.25,-29.46,0,0,0,0,0
1553855718796.88,-32.88,0,0,0,0,0
1553855718812.5,-33.24,0,0,0,0,0
1553855718828.12,-30.85,0,0,0,0,0
1553855718843.75,-26.6,0,0,0,0,0
1553855718859.38,-21.52,0,0,0,0,0
1553855718875,-16.42,0,0,0,0,0
1553855718890.62,-11.59,0,0,0,0,0
1553855718906.25,-6.88,0,0,0,0,0
1553855718921.88,-2.01,0,0,0,0,0
1553855718937.5,3.14,0,0,0,0,0
1553855718953.12,8.37,0,0,0,0,0
1553855718968.75,13.1,0,0,0,0,0
1553855718984.38,16.75,0,0,0,0,0
1553855719000,18.91,0,0,0,0,0
1553855719015.62,19.58,0,0,0,0,0
1553855719031.25,19.13,0,0,0,0,0
1553855719046.88,18.07,0,0,0,0,0
1553855719062.5,16.87,0,0,0,0,0
1553855719078.12,15.81,0,0,0,0,0
1553855719093.75,14.86,0,0,0,0,0
1553855719109.38,13.91,0,0,0,0,0
1553855719125,12.87,0,0,0,0,0
1553855719140.62,11.8,0,0,0,0,0
1553855719156.25,10.97,0,0,0,0,0
1553855719171.88,10.7,0,0,0,0,0
1553855719187.5,11.07,0,0,0,0,0
1553855719203.12,11.91,0,0,0,0,0
1553855719218.75,12.71,0,0,0,0,0
1553855719234.38,12.89,0,0,0,0,0
1553855719250,12.09,0,0,0,0,0
1553855719265.62,10.26,0,0,0,0,0
1553855719281.25,7.63,0,0,0,0,0
1553855719296.88,4.52,0,0,0,0,0
1553855719312.5,1.1,0,0,0,0,0
1553855719328.12,-2.62,0,0,0,0,0
1553855719343.75,-6.64,0,0,0,0,0
1553855719359.38,-10.81,0,0,0,0,0
1553855719375,-14.75,0,0,0,0,0
1553855719390.62,-18.07,0,0,0,0,0
1553855719406.25,-20.59,0,0,0,0,0
1553855719421.88,-22.5,0,0,0,0,0
1553855719437.5,-24.24,0,0,0,0,0
1553855719453.12,-26.17,0,0,0,0,0
1553855719468.75,-28.12,0,0,0,0,0
1553855719484.38,-29.27,0,0,0,0,0
1553855719500,-28.46,0,0,0,0,0
1553855719515.62,-24.84,0,0,0,0,0
1553855719531.25,-18.33,0,0,0,0,0
1553855719546.88,-9.89,0,0,0,0,0
1553855719562.5,-1.15,0,0,0,0,0
1553855719578.12,6.34,0,0,0,0,0
1553855719593.75,11.74,0,0,0,0,0
1553855719609.38,15.25,0,0,0,0,0
1553855719625,17.85,0,0,0,0,0
1553855719640.62,20.66,0,0,0,0,0
1553855719656.25,24.32,0,0,0,0,0
1553855719671.88,28.67,0,0,0,0,0
1553855719687.5,32.93,0,0,0,0,0
1553855719703.12,36.2,0,0,0,0,0
1553855719718.75,37.9,0,0,0,0,0
1553855719734.38,38.03,0,0,0,0,0
1553855719750,37.07,0,0,0,0,0
1553855719765.62,35.68,0,0,0,0,0
1553855719781.25,34.38,0,0,0,0,0
1553855719796.88,33.41,0,0,0,0,0
1553855719812.5,32.73,0,0,0,0,0
1553855719828.12,32.09,0,0,0,0,0
1553855719843.75,31.28,0,0,0,0,0
1553855719859.38,30.14,0,0,0,0,0
1553855719875,28.73,0,0,0,0,0
1553855719890.62,27.16,0,0,0,0,0
1553855719906.25,25.59,0,0,0,0,0
1553855719921.88,24.05,0,0,0,0,0
1553855719937.5,22.44,0,0,0,0,0
1553855719953.12,20.48,0,0,0,0,0
1553855719968.75,17.81,0,0,0,0,0
1553855719984.38,14.11,0,0,0,0,0
1553855720000,9.31,0,0,0,0,0
1553855720015.62,3.56,0,0,0,0,0
1553855720031.25,-2.74,0,0,0,0,0
1553855720046.88,-9.15,0,0,0,0,0
1553855720062.5,-15.35,0,0,0,0,0
1553855720078.12,-21.12,0,0,0,0,0
1553855720093.75,-26.36,0,0,0,0,0
1553855720109.38,-30.97,0,0,0,0,0
1553855720125,-34.9,0,0,0,0,0
1553855720140.62,-38.1,0,0,0,0,0
1553855720156.25,-40.75,0,0,0,0,0
1553855720171.88,-43.17,0,0,0,0,0
1553855720187.5,-45.68,0,0,0,0,0
1553855720203.12,-48.31,0,0,0,0,0
1553855720218.75,-50.6,0,0,0,0,0
1553855720234.38,-51.68,0,0,0,0,0
1553855720250,-50.71,0,0,0,0,0
1553855720265.62,-47.45,0,0,0,0,0
1553855720281.25,-42.58,0,0,0,0,0
1553855720296.88,-37.54,0,0,0,0,0
1553855720312.5,-33.96,0,0,0,0,0
1553855720328.12,-32.88,0,0,0,0,0
1553855720343.75,-34.17,0,0,0,0,0
1553855720359.38,-36.68,0,0,0,0,0
1553855720375,-38.78,0,0,0,0,0
1553855720390.62,-39.31,0,0,0,0,0
1553855720406.25,-38.14,0,0,0,0,0
1553855720421.88,-36.36,0,0,0,0,0
1553855720437.5,-35.57,0,0,0,0,0
1553855720453.12,-37.27,0,0,0,0,0
1553855720468.75,-42.09,0,0,0,0,0
1553855720484.38,-49.56,0,0,0,0,0
1553855720500,-58.44,0,0,0,0,0
1553855720515.62,-67.11,0,0,0,0,0
1553855720531.25,-73.88,0,0,0,0,0
1553855720546.88,-77.3,0,0,0,0,0
1553855720562.5,-76.5,0,0,0,0,0
1553855720578.12,-71.64,0,0,0,0,0
1553855720593.75,-64.45,0,0,0,0,0
1553855720609.38,-58.32,0,0,0,0,0
1553855720625,-57.51,0,0,0,0,0
1553855720640.62,-65.78,0,0,0,0,0
1553855720656.25,-84.54,0,0,0,0,0
1553855720671.88,-111.93,0,0,0,0,0
1553855720687.5,-143.25,0,0,0,0,0
1553855720703.12,-172.85,0,0,0,0,0
1553855720718.75,-196.37,0,0,0,0,0
1553855720734.38,-212.48,0,0,0,0,0
1553855720750,-222.93,0,0,0,0,0
1553855720765.62,-230.95,0,0,0,0,0
1553855720781.25,-239.09,0,0,0,0,0
1553855720796.88,-247.44,0,0,0,0,0
1553855720812.5,-253.35,0,0,0,0,0
1553855720828.12,-252.64,0,0,0,0,0
1553855720843.75,-241.65,0,0,0,0,0
1553855720859.38,-218.88,0,0,0,0,0
1553855720875,-185.64,0,0,0,0,0
1553855720890.62,-145.3,0,0,0,0,0
1553855720906.25,-101.69,0,0,0,0,0
1553855720921.88,-57.83,0,0,0,0,0
1553855720937.5,-15.33,0,0,0,0,0
1553855720953.12,25.06,0,0,0,0,0
1553855720968.75,62.37,0,0,0,0,0
1553855720984.38,94.8,0,0,0,0,0
1553855721000,120.3,0,0,0,0,0
1553855721015.62,137.82,0,0,0,0,0
1553855721031.25,148.5,0,0,0,0,0
1553855721046.88,155.31,0,0,0,0,0
1553855721062.5,161.31,0,0,0,0,0
1553855721078.12,167.45,0,0,0,0,0
1553855721093.75,171.6,0,0,0,0,0
1553855721109.38,169.55,0,0,0,0,0
1553855721125,157.78,0,0,0,0,0
1553855721140.62,136.06,0,0,0,0,0
1553855721156.25,108.33,0,0,0,0,0
1553855721171.88,81.13,0,0,0,0,0
1553855721187.5,60.61,0,0,0,0,0
1553855721203.12,49.52,0,0,0,0,0
1553855721218.75,46.57,0,0,0,0,0
1553855721234.38,47.83,0,0,0,0,0
1553855721250,49.36,0,0,0,0,0
1553855721265.62,49.31,0,0,0,0,0
1553855721281.25,48.43,0,0,0,0,0
1553855721296.88,48.83,0,0,0,0,0
1553855721312.5,52.14,0,0,0,0,0
1553855721328.12,58.44,0,0,0,0,0
1553855721343.75,66.16,0,0,0,0,0
1553855721359.38,73.07,0,0,0,0,0
1553855721375,77.4,0,0,0,0,0
1553855721390.62,78.47,0,0,0,0,0
1553855721406.25,76.76,0,0,0,0,0
1553855721421.88,73.23,0,0,0,0,0
1553855721437.5,68.55,0,0,0,0,0
1553855721453.12,62.87,0,0,0,0,0
1553855721468.75,55.89,0,0,0,0,0
1553855721484.38,47.32,0,0,0,0,0
1553855721500,37.44,0,0,0,0,0
1553855721515.62,27.16,0,0,0,0,0
1553855721531.25,17.9,0,0,0,0,0
1553855721546.88,11,0,0,0,0,0
1553855721562.5,7.18,0,0,0,0,0
1553855721578.12,6.23,0,0,0,0,0
1553855721593.75,7.02,0,0,0,0,0
1553855721609.38,8.13,0,0,0,0,0
1553855721625,8.36,0,0,0,0,0
1553855721640.62,7.39,0,0,0,0,0
1553855721656.25,5.68,0,0,0,0,0
1553855721671.88,4.16,0,0,0,0,0
1553855721687.5,3.8,0,0,0,0,0
1553855721703.12,5.17,0,0,0,0,0
1553855721718.75,8.29,0,0,0,0,0
1553855721734.38,12.9,0,0,0,0,0
1553855721750,18.64,0,0,0,0,0
1553855721765.62,25.21,0,0,0,0,0
1553855721781.25,32.31,0,0,0,0,0
1553855721796.88,39.64,0,0,0,0,0
1553855721812.5,46.83,0,0,0,0,0
1553855721828.12,53.55,0,0,0,0,0
1553855721843.75,59.64,0,0,0,0,0
1553855721859.38,65.11,0,0,0,0,0
1553855721875,70.08,0,0,0,0,0
1553855721890.62,74.63,0,0,0,0,0
1553855721906.25,78.7,0,0,0,0,0
1553855721921.88,82.11,0,0,0,0,0
1553855721937.5,84.59,0,0,0,0,0
1553855721953.12,85.88,0,0,0,0,0
1553855721968.75,85.8,0,0,0,0,0
1553855721984.38,84.21,0,0,0,0,0
1553855722000,81.15,0,0,0,0,0
1553855722015.62,76.89,0,0,0,0,0
1553855722031.25,72.07,0,0,0,0,0
1553855722046.88,67.61,0,0,0,0,0
1553855722062.5,64.39,0,0,0,0,0
1553855722078.12,62.87,0,0,0,0,0
1553855722093.75,62.7,0,0,0,0,0
1553855722109.38,62.84,0,0,0,0,0
1553855722125,61.93,0,0,0,0,0
1553855722140.62,58.93,0,0,0,0,0
1553855722156.25,53.55,0,0,0,0,0
1553855722171.88,46.3,0,0,0,0,0
1553855722187.5,38.06,0,0,0,0,0
1553855722203.12,29.65,0,0,0,0,0
1553855722218.75,21.43,0,0,0,0,0
1553855722234.38,13.41,0,0,0,0,0
1553855722250,5.41,0,0,0,0,0
1553855722265.62,-2.54,0,0,0,0,0
1553855722281.25,-10.15,0,0,0,0,0
1553855722296.88,-17.08,0,0,0,0,0
1553855722312.5,-23.19,0,0,0,0,0
1553855722328.12,-28.71,0,0,0,0,0
1553855722343.75,-34.07,0,0,0,0,0
1553855722359.38,-39.75,0,0,0,0,0
1553855722375,-45.89,0,0,0,0,0
1553855722390.62,-52.33,0,0,0,0,0
1553855722406.25,-58.63,0,0,0,0,0
1553855722421.88,-64.31,0,0,0,0,0
1553855722437.5,-69.08,0,0,0,0,0
1553855722453.12,-72.99,0,0,0,0,0
1553855722468.75,-76.34,0,0,0,0,0
1553855722484.38,-79.5,0,0,0,0,0
1553855722500,-82.49,0,0,0,0,0
1553855722515.62,-84.76,0,0,0,0,0
1553855722531.25,-85.26,0,0,0,0,0
1553855722546.88,-82.86,0,0,0,0,0
1553855722562.5,-76.89,0,0,0,0,0
1553855722578.12,-67.61,0,0,0,0,0
1553855722593.75,-56.27,0,0,0,0,0
1553855722609.38,-44.59,0,0,0,0,0
1553855722625,-34.08,0,0,0,0,0
1553855722640.62,-25.43,0,0,0,0,0
1553855722656.25,-18.31,0,0,0,0,0
1553855722671.88,-11.79,0,0,0,0,0
1553855722687.5,-5.01,0,0,0,0,0
1553855722703.12,2.34,0,0,0,0,0
1553855722718.75,9.83,0,0,0,0,0
1553855722734.38,16.66,0,0,0,0,0
1553855722750,22.05,0,0,0,0,0
1553855722765.62,25.71,0,0,0,0,0
1553855722781.25,27.79,0,0,0,0,0
1553855722796.88,28.77,0,0,0,0,0
1553855722812.5,29.11,0,0,0,0,0
1553855722828.12,29.15,0,0,0,0,0
1553855722843.75,29.08,0,0,0,0,0
1553855722859.38,29.07,0,0,0,0,0
1553855722875,29.33,0,0,0,0,0
1553855722890.62,30.12,0,0,0,0,0
1553855722906.25,31.65,0,0,0,0,0
1553855722921.88,33.86,0,0,0,0,0
1553855722937.5,36.42,0,0,0,0,0
1553855722953.12,38.72,0,0,0,0,0
1553855722968.75,40.1,0,0,0,0,0
1553855722984.38,39.92,0,0,0,0,0
1553855723000,37.83,0,0,0,0,0
1553855723015.62,33.87,0,0,0,0,0
1553855723031.25,28.53,0,0,0,0,0
1553855723046.88,22.67,0,0,0,0,0
1553855723062.5,17.25,0,0,0,0,0
1553855723078.12,13.03,0,0,0,0,0
1553855723093.75,10.32,0,0,0,0,0
1553855723109.38,8.77,0,0,0,0,0
1553855723125,7.61,0,0,0,0,0
1553855723140.62,6.02,0,0,0,0,0
1553855723156.25,3.51,0,0,0,0,0
1553855723171.88,0.12,0,0,0,0,0
1553855723187.5,-3.67,0,0,0,0,0
1553855723203.12,-7.27,0,0,0,0,0
1553855723218.75,-10.37,0,0,0,0,0
1553855723234.38,-13.12,0,0,0,0,0
1553855723250,-16.04,0,0,0,0,0
1553855723265.62,-19.75,0,0,0,0,0
1553855723281.25,-24.6,0,0,0,0,0
1553855723296.88,-30.53,0,0,0,0,0
1553855723312.5,-36.97,0,0,0,0,0
1553855723328.12,-42.95,0,0,0,0,0
1553855723343.75,-47.3,0,0,0,0,0
1553855723359.38,-48.97,0,0,0,0,0
1553855723375,-47.3,0,0,0,0,0
1553855723390.62,-42.33,0,0,0,0,0
1553855723406.25,-34.79,0,0,0,0,0
1553855723421.88,-25.9,0,0,0,0,0
1553855723437.5,-16.92,0,0,0,0,0
1553855723453.12,-8.81,0,0,0,0,0
1553855723468.75,-1.96,0,0,0,0,0
1553855723484.38,3.73,0,0,0,0,0
1553855723500,8.67,0,0,0,0,0
1553855723515.62,13.27,0,0,0,0,0
1553855723531.25,17.76,0,0,0,0,0
1553855723546.88,22.25,0,0,0,0,0
1553855723562.5,26.66,0,0,0,0,0
1553855723578.12,30.82,0,0,0,0,0
1553855723593.75,34.5,0,0,0,0,0
1553855723609.38,37.5,0,0,0,0,0
1553855723625,39.73,0,0,0,0,0
1553855723640.62,41.32,0,0,0,0,0
1553855723656.25,42.62,0,0,0,0,0
1553855723671.88,44.02,0,0,0,0,0
1553855723687.5,45.79,0,0,0,0,0
1553855723703.12,47.94,0,0,0,0,0
1553855723718.75,50.25,0,0,0,0,0
1553855723734.38,52.42,0,0,0,0,0
1553855723750,54.24,0,0,0,0,0
1553855723765.62,55.65,0,0,0,0,0
1553855723781.25,56.75,0,0,0,0,0
1553855723796.88,57.58,0,0,0,0,0
1553855723812.5,58.1,0,0,0,0,0
1553855723828.12,58.16,0,0,0,0,0
1553855723843.75,57.66,0,0,0,0,0
1553855723859.38,56.65,0,0,0,0,0
1553855723875,55.4,0,0,0,0,0
1553855723890.62,54.26,0,0,0,0,0
1553855723906.25,53.45,0,0,0,0,0
1553855723921.88,52.68,0,0,0,0,0
1553855723937.5,51.07,0,0,0,0,0
1553855723953.12,47.23,0,0,0,0,0
1553855723968.75,39.61,0,0,0,0,0
1553855723984.38,27.17,0,0,0,0,0
1553855724000,9.79,0,0,0,0,0
1553855724015.62,-11.47,0,0,0,0,0
1553855724031.25,-34.7,0,0,0,0,0
1553855724046.88,-57.75,0,0,0,0,0
1553855724062.5,-78.77,0,0,0,0,0
1553855724078.12,-96.61,0,0,0,0,0
1553855724093.75,-110.71,0,0,0,0,0
1553855724109.38,-120.83,0,0,0,0,0
1553855724125,-126.82,0,0,0,0,0
1553855724140.62,-128.57,0,0,0,0,0
1553855724156.25,-126.31,0,0,0,0,0
1553855724171.88,-120.72,0,0,0,0,0
1553855724187.5,-112.98,0,0,0,0,0
1553855724203.12,-104.43,0,0,0,0,0
1553855724218.75,-96.14,0,0,0,0,0
1553855724234.38,-88.53,0,0,0,0,0
1553855724250,-81.44,0,0,0,0,0
1553855724265.62,-74.34,0,0,0,0,0
1553855724281.25,-66.78,0,0,0,0,0
1553855724296.88,-58.72,0,0,0,0,0
1553855724312.5,-50.44,0,0,0,0,0
1553855724328.12,-42.39,0,0,0,0,0
1553855724343.75,-34.82,0,0,0,0,0
1553855724359.38,-27.73,0,0,0,0,0
1553855724375,-20.97,0,0,0,0,0
1553855724390.62,-14.47,0,0,0,0,0
1553855724406.25,-8.34,0,0,0,0,0
1553855724421.88,-2.9,0,0,0,0,0
1553855724437.5,1.56,0,0,0,0,0
1553855724453.12,4.9,0,0,0,0,0
1553855724468.75,7.2,0,0,0,0,0
1553855724484.38,8.66,0,0,0,0,0
1553855724500,9.47,0,0,0,0,0
1553855724515.62,9.75,0,0,0,0,0
1553855724531.25,9.64,0,0,0,0,0
1553855724546.88,9.43,0,0,0,0,0
1553855724562.5,9.67,0,0,0,0,0
1553855724578.12,10.88,0,0,0,0,0
1553855724593.75,13.42,0,0,0,0,0
1553855724609.38,17.21,0,0,0,0,0
1553855724625,21.74,0,0,0,0,0
1553855724640.62,26.38,0,0,0,0,0
1553855724656.25,30.48,0,0,0,0,0
1553855724671.88,33.63,0,0,0,0,0
1553855724687.5,35.49,0,0,0,0,0
1553855724703.12,35.78,0,0,0,0,0
1553855724718.75,34.25,0,0,0,0,0
1553855724734.38,30.91,0,0,0,0,0
1553855724750,26.26,0,0,0,0,0
1553855724765.62,21.21,0,0,0,0,0
1553855724781.25,16.94,0,0,0,0,0
1553855724796.88,14.39,0,0,0,0,0
1553855724812.5,13.99,0,0,0,0,0
1553855724828.12,15.64,0,0,0,0,0
1553855724843.75,18.79,0,0,0,0,0
1553855724859.38,22.94,0,0,0,0,0
1553855724875,27.66,0,0,0,0,0
1553855724890.62,32.57,0,0,0,0,0
1553855724906.25,37.19,0,0,0,0,0
1553855724921.88,40.88,0,0,0,0,0
1553855724937.5,43.05,0,0,0,0,0
1553855724953.12,43.51,0,0,0,0,0
1553855724968.75,42.62,0,0,0,0,0
1553855724984.38,41.24,0,0,0,0,0
1553855725000,40.26,0,0,0,0,0
1553855725015.62,40.18,0,0,0,0,0
1553855725031.25,40.86,0,0,0,0,0
1553855725046.88,41.73,0,0,0,0,0
1553855725062.5,42.13,0,0,0,0,0
1553855725078.12,41.74,0,0,0,0,0
1553855725093.75,40.74,0,0,0,0,0
1553855725109.38,39.58,0,0,0,0,0
1553855725125,38.64,0,0,0,0,0
1553855725140.62,37.96,0,0,0,0,0
1553855725156.25,37.16,0,0,0,0,0
1553855725171.88,35.68,0,0,0,0,0
1553855725187.5,33.1,0,0,0,0,0
1553855725203.12,29.36,0,0,0,0,0
1553855725218.75,24.75,0,0,0,0,0
1553855725234.38,19.71,0,0,0,0,0
1553855725250,14.62,0,0,0,0,0
1553855725265.62,9.59,0,0,0,0,0
1553855725281.25,4.44,0,0,0,0,0
1553855725296.88,-1.18,0,0,0,0,0
1553855725312.5,-7.69,0,0,0,0,0
1553855725328.12,-15.35,0,0,0,0,0
1553855725343.75,-24.19,0,0,0,0,0
1553855725359.38,-33.84,0,0,0,0,0
1553855725375,-43.4,0,0,0,0,0
1553855725390.62,-51.56,0,0,0,0,0
1553855725406.25,-56.89,0,0,0,0,0
1553855725421.88,-58.15,0,0,0,0,0
1553855725437.5,-54.89,0,0,0,0,0
1553855725453.12,-47.5,0,0,0,0,0
1553855725468.75,-37.21,0,0,0,0,0
1553855725484.38,-25.63,0,0,0,0,0
1553855725500,-14.2,0,0,0,0,0
1553855725515.62,-3.84,0,0,0,0,0
1553855725531.25,5.19,0,0,0,0,0
1553855725546.88,13.15,0,0,0,0,0
1553855725562.5,20.51,0,0,0,0,0
1553855725578.12,27.71,0,0,0,0,0
1553855725593.75,34.86,0,0,0,0,0
1553855725609.38,41.68,0,0,0,0,0
1553855725625,47.56,0,0,0,0,0
1553855725640.62,51.78,0,0,0,0,0
1553855725656.25,53.82,0,0,0,0,0
1553855725671.88,53.61,0,0,0,0,0
1553855725687.5,51.54,0,0,0,0,0
1553855725703.12,48.34,0,0,0,0,0
1553855725718.75,44.74,0,0,0,0,0
1553855725734.38,41.09,0,0,0,0,0
1553855725750,37.32,0,0,0,0,0
1553855725765.62,33.08,0,0,0,0,0
1553855725781.25,27.97,0,0,0,0,0
1553855725796.88,21.88,0,0,0,0,0
1553855725812.5,15.06,0,0,0,0,0
1553855725828.12,8.05,0,0,0,0,0
1553855725843.75,1.35,0,0,0,0,0
1553855725859.38,-4.84,0,0,0,0,0
1553855725875,-10.68,0,0,0,0,0
1553855725890.62,-16.68,0,0,0,0,0
1553855725906.25,-23.35,0,0,0,0,0
1553855725921.88,-31.07,0,0,0,0,0
1553855725937.5,-39.96,0,0,0,0,0
1553855725953.12,-49.86,0,0,0,0,0
1553855725968.75,-60.29,0,0,0,0,0
1553855725984.38,-70.4,0,0,0,0,0
1553855726000,-78.95,0,0,0,0,0
1553855726015.62,-84.37,0,0,0,0,0
1553855726031.25,-85.25,0,0,0,0,0
1553855726046.88,-80.92,0,0,0,0,0
1553855726062.5,-71.89,0,0,0,0,0
1553855726078.12,-59.78,0,0,0,0,0
1553855726093.75,-46.71,0,0,0,0,0
1553855726109.38,-34.34,0,0,0,0,0
1553855726125,-23.18,0,0,0,0,0
1553855726140.62,-12.61,0,0,0,0,0
1553855726156.25,-1.45,0,0,0,0,0
1553855726171.88,10.95,0,0,0,0,0
1553855726187.5,24.19,0,0,0,0,0
1553855726203.12,36.88,0,0,0,0,0
1553855726218.75,47.26,0,0,0,0,0
1553855726234.38,53.95,0,0,0,0,0
1553855726250,56.4,0,0,0,0,0
1553855726265.62,54.71,0,0,0,0,0
1553855726281.25,49.26,0,0,0,0,0
1553855726296.88,40.48,0,0,0,0,0
1553855726312.5,28.92,0,0,0,0,0
1553855726328.12,15.68,0,0,0,0,0
1553855726343.75,2.54,0,0,0,0,0
1553855726359.38,-8.39,0,0,0,0,0
1553855726375,-15.31,0,0,0,0,0
1553855726390.62,-17.56,0,0,0,0,0
1553855726406.25,-15.92,0,0,0,0,0
1553855726421.88,-12.3,0,0,0,0,0
1553855726437.5,-8.82,0,0,0,0,0
1553855726453.12,-7,0,0,0,0,0
1553855726468.75,-7.19,0,0,0,0,0
1553855726484.38,-8.76,0,0,0,0,0
1553855726500,-10.69,0,0,0,0,0
1553855726515.62,-12.1,0,0,0,0,0
1553855726531.25,-12.63,0,0,0,0,0
1553855726546.88,-12.31,0,0,0,0,0
1553855726562.5,-11.23,0,0,0,0,0
1553855726578.12,-9.21,0,0,0,0,0
1553855726593.75,-5.81,0,0,0,0,0
1553855726609.38,-0.61,0,0,0,0,0
1553855726625,6.24,0,0,0,0,0
1553855726640.62,13.66,0,0,0,0,0
1553855726656.25,19.66,0,0,0,0,0
1553855726671.88,21.96,0,0,0,0,0
1553855726687.5,18.85,0,0,0,0,0
1553855726703.12,10.07,0,0,0,0,0
1553855726718.75,-2.9,0,0,0,0,0
1553855726734.38,-17.44,0,0,0,0,0
1553855726750,-30.73,0,0,0,0,0
1553855726765.62,-40.88,0,0,0,0,0
1553855726781.25,-47.43,0,0,0,0,0
1553855726796.88,-51.23,0,0,0,0,0
1553855726812.5,-53.65,0,0,0,0,0
1553855726828.12,-55.85,0,0,0,0,0
1553855726843.75,-58.3,0,0,0,0,0
1553855726859.38,-60.73,0,0,0,0,0
1553855726875,-62.49,0,0,0,0,0
1553855726890.62,-62.79,0,0,0,0,0
1553855726906.25,-60.79,0,0,0,0,0
1553855726921.88,-55.52,0,0,0,0,0
1553855726937.5,-46.03,0,0,0,0,0
1553855726953.12,-31.83,0,0,0,0,0
1553855726968.75,-13.59,0,0,0,0,0
1553855726984.38,6.38,0,0,0,0,0
1553855727000,24.49,0,0,0,0,0
1553855727015.62,36.94,0,0,0,0,0
1553855727031.25,41.4,0,0,0,0,0
1553855727046.88,38.2,0,0,0,0,0
1553855727062.5,30.48,0,0,0,0,0
1553855727078.12,22.93,0,0,0,0,0
1553855727093.75,19.66,0,0,0,0,0
1553855727109.38,22.46,0,0,0,0,0
1553855727125,30.19,0,0,0,0,0
1553855727140.62,39.56,0,0,0,0,0
1553855727156.25,46.68,0,0,0,0,0
1553855727171.88,48.68,0,0,0,0,0
1553855727187.5,44.49,0,0,0,0,0
1553855727203.12,34.75,0,0,0,0,0
1553855727218.75,21.01,0,0,0,0,0
1553855727234.38,4.93,0,0,0,0,0
1553855727250,-12.21,0,0,0,0,0
1553855727265.62,-29.6,0,0,0,0,0
1553855727281.25,-46.85,0,0,0,0,0
1553855727296.88,-63.77,0,0,0,0,0
1553855727312.5,-80.14,0,0,0,0,0
1553855727328.12,-95.37,0,0,0,0,0
1553855727343.75,-108.13,0,0,0,0,0
1553855727359.38,-116.37,0,0,0,0,0
1553855727375,-117.69,0,0,0,0,0
1553855727390.62,-110.31,0,0,0,0,0
1553855727406.25,-94.12,0,0,0,0,0
1553855727421.88,-71.11,0,0,0,0,0
1553855727437.5,-45.2,0,0,0,0,0
1553855727453.12,-21.02,0,0,0,0,0
1553855727468.75,-2.58,0,0,0,0,0
1553855727484.38,8.02,0,0,0,0,0
1553855727500,10.99,0,0,0,0,0
1553855727515.62,8.45,0,0,0,0,0
1553855727531.25,3.42,0,0,0,0,0
1553855727546.88,-1.38,0,0,0,0,0
1553855727562.5,-4.3,0,0,0,0,0
1553855727578.12,-4.81,0,0,0,0,0
1553855727593.75,-3.08,0,0,0,0,0
1553855727609.38,0.46,0,0,0,0,0
1553855727625,5.45,0,0,0,0,0
1553855727640.62,11.45,0,0,0,0,0
1553855727656.25,17.63,0,0,0,0,0
1553855727671.88,22.6,0,0,0,0,0
1553855727687.5,24.72,0,0,0,0,0
1553855727703.12,22.97,0,0,0,0,0
1553855727718.75,17.87,0,0,0,0,0
1553855727734.38,11.83,0,0,0,0,0
1553855727750,8.46,0,0,0,0,0
1553855727765.62,10.93,0,0,0,0,0
1553855727781.25,20.18,0,0,0,0,0
1553855727796.88,34.08,0,0,0,0,0
1553855727812.5,48.05,0,0,0,0,0
1553855727828.12,56.91,0,0,0,0,0
1553855727843.75,57.21,0,0,0,0,0
1553855727859.38,48.58,0,0,0,0,0
1553855727875,33.77,0,0,0,0,0
1553855727890.62,17.28,0,0,0,0,0
1553855727906.25,3.66,0,0,0,0,0
1553855727921.88,-3.81,0,0,0,0,0
1553855727937.5,-3.8,0,0,0,0,0
1553855727953.12,3.04,0,0,0,0,0
1553855727968.75,14.3,0,0,0,0,0
1553855727984.38,26.24,0,0,0,0,0
1553855728000,34.62,0,0,0,0,0
1553855728015.62,35.94,0,0,0,0,0
1553855728031.25,28.81,0,0,0,0,0
1553855728046.88,14.76,0,0,0,0,0
1553855728062.5,-2.09,0,0,0,0,0
1553855728078.12,-16.54,0,0,0,0,0
1553855728093.75,-24.27,0,0,0,0,0
1553855728109.38,-23.23,0,0,0,0,0
1553855728125,-14.05,0,0,0,0,0
1553855728140.62,0.68,0,0,0,0,0
1553855728156.25,17.56,0,0,0,0,0
1553855728171.88,33.39,0,0,0,0,0
1553855728187.5,45.74,0,0,0,0,0
1553855728203.12,53.07,0,0,0,0,0
1553855728218.75,54.8,0,0,0,0,0
1553855728234.38,51.5,0,0,0,0,0
1553855728250,44.99,0,0,0,0,0
1553855728265.62,38.4,0,0,0,0,0
1553855728281.25,35.5,0,0,0,0,0
1553855728296.88,39.55,0,0,0,0,0
1553855728312.5,52.09,0,0,0,0,0
1553855728328.12,71.87,0,0,0,0,0
1553855728343.75,94.86,0,0,0,0,0
1553855728359.38,115.26,0,0,0,0,0
1553855728375,127.32,0,0,0,0,0
1553855728390.62,127.27,0,0,0,0,0
1553855728406.25,114.39,0,0,0,0,0
1553855728421.88,91.02,0,0,0,0,0
1553855728437.5,61.55,0,0,0,0,0
1553855728453.12,31.1,0,0,0,0,0
1553855728468.75,4.41,0,0,0,0,0
1553855728484.38,-14.91,0,0,0,0,0
1553855728500,-24.83,0,0,0,0,0
1553855728515.62,-25.1,0,0,0,0,0
1553855728531.25,-17.46,0,0,0,0,0
1553855728546.88,-5.4,0,0,0,0,0
1553855728562.5,6.76,0,0,0,0,0
1553855728578.12,15.19,0,0,0,0,0
1553855728593.75,17.75,0,0,0,0,0
1553855728609.38,14.57,0,0,0,0,0
1553855728625,7.5,0,0,0,0,0
1553855728640.62,-1.08,0,0,0,0,0
1553855728656.25,-9.38,0,0,0,0,0
1553855728671.88,-16.74,0,0,0,0,0
1553855728687.5,-23.48,0,0,0,0,0
1553855728703.12,-30.22,0,0,0,0,0
1553855728718.75,-37.3,0,0,0,0,0
1553855728734.38,-44.46,0,0,0,0,0
1553855728750,-50.96,0,0,0,0,0
1553855728765.62,-55.87,0,0,0,0,0
1553855728781.25,-58.4,0,0,0,0,0
1553855728796.88,-58.16,0,0,0,0,0
1553855728812.5,-55.24,0,0,0,0,0
1553855728828.12,-50.04,0,0,0,0,0
1553855728843.75,-43.02,0,0,0,0,0
1553855728859.38,-34.59,0,0,0,0,0
1553855728875,-25.16,0,0,0,0,0
1553855728890.62,-15.34,0,0,0,0,0
1553855728906.25,-6.05,0,0,0,0,0
1553855728921.88,1.68,0,0,0,0,0
1553855728937.5,7.15,0,0,0,0,0
1553855728953.12,10.31,0,0,0,0,0
1553855728968.75,11.9,0,0,0,0,0
1553855728984.38,13.07,0,0,0,0,0
1553855729000,14.83,0,0,0,0,0
1553855729015.62,17.61,0,0,0,0,0
1553855729031.25,21.19,0,0,0,0,0
1553855729046.88,24.87,0,0,0,0,0
1553855729062.5,28.02,0,0,0,0,0
1553855729078.12,30.31,0,0,0,0,0
1553855729093.75,31.76,0,0,0,0,0
1553855729109.38,32.56,0,0,0,0,0
1553855729125,32.89,0,0,0,0,0
1553855729140.62,32.85,0,0,0,0,0
1553855729156.25,32.48,0,0,0,0,0
1553855729171.88,31.86,0,0,0,0,0
1553855729187.5,31.11,0,0,0,0,0
1553855729203.12,30.35,0,0,0,0,0
1553855729218.75,29.59,0,0,0,0,0
1553855729234.38,28.74,0,0,0,0,0
1553855729250,27.63,0,0,0,0,0
1553855729265.62,26.02,0,0,0,0,0
1553855729281.25,23.74,0,0,0,0,0
1553855729296.88,20.7,0,0,0,0,0
1553855729312.5,16.99,0,0,0,0,0
1553855729328.12,12.88,0,0,0,0,0
1553855729343.75,8.87,0,0,0,0,0
1553855729359.38,5.49,0,0,0,0,0
1553855729375,3.16,0,0,0,0,0
1553855729390.62,1.9,0,0,0,0,0
1553855729406.25,1.38,0,0,0,0,0
1553855729421.88,0.84,0,0,0,0,0
1553855729437.5,-0.64,0,0,0,0,0
1553855729453.12,-3.85,0,0,0,0,0
1553855729468.75,-9.19,0,0,0,0,0
1553855729484.38,-16.5,0,0,0,0,0
1553855729500,-25.06,0,0,0,0,0
1553855729515.62,-33.83,0,0,0,0,0
1553855729531.25,-41.6,0,0,0,0,0
1553855729546.88,-47.32,0,0,0,0,0
1553855729562.5,-50.24,0,0,0,0,0
1553855729578.12,-50.02,0,0,0,0,0
1553855729593.75,-46.87,0,0,0,0,0
1553855729609.38,-41.41,0,0,0,0,0
1553855729625,-34.6,0,0,0,0,0
1553855729640.62,-27.46,0,0,0,0,0
1553855729656.25,-20.82,0,0,0,0,0
1553855729671.88,-15.12,0,0,0,0,0
1553855729687.5,-10.42,0,0,0,0,0
1553855729703.12,-6.55,0,0,0,0,0
1553855729718.75,-3.31,0,0,0,0,0
1553855729734.38,-0.68,0,0,0,0,0
1553855729750,1.23,0,0,0,0,0
1553855729765.62,2.24,0,0,0,0,0
1553855729781.25,2.31,0,0,0,0,0
1553855729796.88,1.62,0,0,0,0,0
1553855729812.5,0.45,0,0,0,0,0
1553855729828.12,-0.93,0,0,0,0,0
1553855729843.75,-2.44,0,0,0,0,0
1553855729859.38,-4.09,0,0,0,0,0
1553855729875,-5.82,0,0,0,0,0
1553855729890.62,-7.38,0,0,0,0,0
1553855729906.25,-8.21,0,0,0,0,0
1553855729921.88,-7.74,0,0,0,0,0
1553855729937.5,-5.7,0,0,0,0,0
1553855729953.12,-2.4,0,0,0,0,0
1553855729968.75,1.31,0,0,0,0,0
1553855729984.38,4.3,0,0,0,0,0
1553855730000,5.61,0,0,0,0,0
1553855730015.62,4.82,0,0,0,0,0
1553855730031.25,2.13,0,0,0,0,0
1553855730046.88,-1.84,0,0,0,0,0
1553855730062.5,-6.36,0,0,0,0,0
1553855730078.12,-10.86,0,0,0,0,0
1553855730093.75,-15.07,0,0,0,0,0
1553855730109.38,-18.99,0,0,0,0,0
1553855730125,-22.82,0,0,0,0,0
1553855730140.62,-26.88,0,0,0,0,0
1553855730156.25,-31.55,0,0,0,0,0
1553855730171.88,-37.11,0,0,0,0,0
1553855730187.5,-43.65,0,0,0,0,0
1553855730203.12,-50.86,0,0,0,0,0
1553855730218.75,-58.03,0,0,0,0,0
1553855730234.38,-64.14,0,0,0,0,0
1553855730250,-68.07,0,0,0,0,0
1553855730265.62,-68.87,0,0,0,0,0
1553855730281.25,-66.07,0,0,0,0,0
1553855730296.88,-59.69,0,0,0,0,0
1553855730312.5,-50.34,0,0,0,0,0
1553855730328.12,-39.03,0,0,0,0,0
1553855730343.75,-26.93,0,0,0,0,0
1553855730359.38,-15.18,0,0,0,0,0
1553855730375,-4.6,0,0,0,0,0
1553855730390.62,4.37,0,0,0,0,0
1553855730406.25,11.66,0,0,0,0,0
1553855730421.88,17.48,0,0,0,0,0
1553855730437.5,22.23,0,0,0,0,0
1553855730453.12,26.27,0,0,0,0,0
1553855730468.75,29.92,0,0,0,0,0
1553855730484.38,33.38,0,0,0,0,0
1553855730500,36.72,0,0,0,0,0
1553855730515.62,39.86,0,0,0,0,0
1553855730531.25,42.69,0,0,0,0,0
1553855730546.88,45.16,0,0,0,0,0
1553855730562.5,47.4,0,0,0,0,0
1553855730578.12,49.79,0,0,0,0,0
1553855730593.75,52.79,0,0,0,0,0
1553855730609.38,56.73,0,0,0,0,0
1553855730625,61.65,0,0,0,0,0
1553855730640.62,67.16,0,0,0,0,0
1553855730656.25,72.56,0,0,0,0,0
1553855730671.88,77.04,0,0,0,0,0
1553855730687.5,79.88,0,0,0,0,0
1553855730703.12,80.7,0,0,0,0,0
1553855730718.75,79.37,0,0,0,0,0
1553855730734.38,76.11,0,0,0,0,0
1553855730750,71.35,0,0,0,0,0
1553855730765.62,65.68,0,0,0,0,0
1553855730781.25,59.64,0,0,0,0,0
1553855730796.88,53.56,0,0,0,0,0
1553855730812.5,47.51,0,0,0,0,0
1553855730828.12,41.27,0,0,0,0,0
1553855730843.75,34.54,0,0,0,0,0
1553855730859.38,27.19,0,0,0,0,0
1553855730875,19.37,0,0,0,0,0
1553855730890.62,11.59,0,0,0,0,0
1553855730906.25,4.62,0,0,0,0,0
1553855730921.88,-0.68,0,0,0,0,0
1553855730937.5,-3.57,0,0,0,0,0
1553855730953.12,-3.56,0,0,0,0,0
1553855730968.75,-0.55,0,0,0,0,0
1553855730984.38,5.17,0,0,0,0,0
1553855731000,12.82,0,0,0,0,0
1553855731015.62,21.32,0,0,0,0,0
1553855731031.25,29.47,0,0,0,0,0
1553855731046.88,36.36,0,0,0,0,0
1553855731062.5,41.63,0,0,0,0,0
1553855731078.12,45.52,0,0,0,0,0
1553855731093.75,48.77,0,0,0,0,0
1553855731109.38,52.21,0,0,0,0,0
1553855731125,56.4,0,0,0,0,0
1553855731140.62,61.48,0,0,0,0,0
1553855731156.25,67.13,0,0,0,0,0
1553855731171.88,72.89,0,0,0,0,0
1553855731187.5,78.24,0,0,0,0,0
1553855731203.12,82.91,0,0,0,0,0
1553855731218.75,86.61,0,0,0,0,0
1553855731234.38,88.95,0,0,0,0,0
1553855731250,89.36,0,0,0,0,0
1553855731265.62,87.26,0,0,0,0,0
1553855731281.25,82.37,0,0,0,0,0
1553855731296.88,74.93,0,0,0,0,0
1553855731312.5,65.7,0,0,0,0,0
1553855731328.12,55.5,0,0,0,0,0
1553855731343.75,44.88,0,0,0,0,0
1553855731359.38,33.86,0,0,0,0,0
1553855731375,22.14,0,0,0,0,0
1553855731390.62,9.63,0,0,0,0,0
1553855731406.25,-3.22,0,0,0,0,0
1553855731421.88,-15.32,0,0,0,0,0
1553855731437.5,-25.42,0,0,0,0,0
1553855731453.12,-32.74,0,0,0,0,0
1553855731468.75,-37.39,0,0,0,0,0
1553855731484.38,-40.42,0,0,0,0,0
1553855731500,-43.26,0,0,0,0,0
1553855731515.62,-47.13,0,0,0,0,0
1553855731531.25,-52.56,0,0,0,0,0
1553855731546.88,-59.19,0,0,0,0,0
1553855731562.5,-65.99,0,0,0,0,0
1553855731578.12,-71.69,0,0,0,0,0
1553855731593.75,-75.27,0,0,0,0,0
1553855731609.38,-76.3,0,0,0,0,0
1553855731625,-75.01,0,0,0,0,0
1553855731640.62,-72.11,0,0,0,0,0
1553855731656.25,-68.32,0,0,0,0,0
1553855731671.88,-63.9,0,0,0,0,0
1553855731687.5,-58.65,0,0,0,0,0
1553855731703.12,-52,0,0,0,0,0
1553855731718.75,-43.45,0,0,0,0,0
1553855731734.38,-32.95,0,0,0,0,0
1553855731750,-20.96,0,0,0,0,0
1553855731765.62,-8.31,0,0,0,0,0
1553855731781.25,4.1,0,0,0,0,0
1553855731796.88,15.45,0,0,0,0,0
1553855731812.5,24.95,0,0,0,0,0
1553855731828.12,31.85,0,0,0,0,0
1553855731843.75,35.54,0,0,0,0,0
1553855731859.38,35.79,0,0,0,0,0
1553855731875,33.01,0,0,0,0,0
1553855731890.62,28.35,0,0,0,0,0
1553855731906.25,23.25,0,0,0,0,0
1553855731921.88,19.03,0,0,0,0,0
1553855731937.5,16.32,0,0,0,0,0
1553855731953.12,15.04,0,0,0,0,0
1553855731968.75,14.68,0,0,0,0,0
1553855731984.38,14.68,0,0,0,0,0
1553855732000,14.69,0,0,0,0,0
1553855732015.62,14.62,0,0,0,0,0
1553855732031.25,14.4,0,0,0,0,0
1553855732046.88,13.86,0,0,0,0,0
1553855732062.5,12.7,0,0,0,0,0
1553855732078.12,10.67,0,0,0,0,0
1553855732093.75,7.75,0,0,0,0,0
1553855732109.38,4.2,0,0,0,0,0
1553855732125,0.4,0,0,0,0,0
1553855732140.62,-3.45,0,0,0,0,0
1553855732156.25,-7.39,0,0,0,0,0
1553855732171.88,-11.68,0,0,0,0,0
1553855732187.5,-16.66,0,0,0,0,0
1553855732203.12,-22.47,0,0,0,0,0
1553855732218.75,-28.96,0,0,0,0,0
1553855732234.38,-35.76,0,0,0,0,0
1553855732250,-42.41,0,0,0,0,0
1553855732265.62,-48.53,0,0,0,0,0
1553855732281.25,-54.05,0,0,0,0,0
1553855732296.88,-59.26,0,0,0,0,0
1553855732312.5,-64.81,0,0,0,0,0
1553855732328.12,-71.5,0,0,0,0,0
1553855732343.75,-79.99,0,0,0,0,0
1553855732359.38,-90.44,0,0,0,0,0
1553855732375,-102.4,0,0,0,0,0
1553855732390.62,-114.83,0,0,0,0,0
1553855732406.25,-126.53,0,0,0,0,0
1553855732421.88,-136.5,0,0,0,0,0
1553855732437.5,-144.27,0,0,0,0,0
1553855732453.12,-149.88,0,0,0,0,0
1553855732468.75,-153.75,0,0,0,0,0
1553855732484.38,-156.28,0,0,0,0,0
1553855732500,-157.7,0,0,0,0,0
1553855732515.62,-157.96,0,0,0,0,0
1553855732531.25,-156.89,0,0,0,0,0
1553855732546.88,-154.38,0,0,0,0,0
1553855732562.5,-150.62,0,0,0,0,0
1553855732578.12,-146.1,0,0,0,0,0
1553855732593.75,-141.64,0,0,0,0,0
1553855732609.38,-138.17,0,0,0,0,0
1553855732625,-136.49,0,0,0,0,0
1553855732640.62,-137,0,0,0,0,0
1553855732656.25,-139.59,0,0,0,0,0
1553855732671.88,-143.44,0,0,0,0,0
1553855732687.5,-146.94,0,0,0,0,0
1553855732703.12,-147.67,0,0,0,0,0
1553855732718.75,-142.64,0,0,0,0,0
1553855732734.38,-129,0,0,0,0,0
1553855732750,-105.04,0,0,0,0,0
1553855732765.62,-71.15,0,0,0,0,0
1553855732781.25,-30.09,0,0,0,0,0
1553855732796.88,13.49,0,0,0,0,0
1553855732812.5,54.69,0,0,0,0,0
1553855732828.12,90.05,0,0,0,0,0
1553855732843.75,118.46,0,0,0,0,0
1553855732859.38,140.83,0,0,0,0,0
1553855732875,158.48,0,0,0,0,0
1553855732890.62,171.62,0,0,0,0,0
1553855732906.25,178.87,0,0,0,0,0
1553855732921.88,178.12,0,0,0,0,0
1553855732937.5,168.3,0,0,0,0,0
1553855732953.12,150.87,0,0,0,0,0
1553855732968.75,129.9,0,0,0,0,0
1553855732984.38,110.56,0,0,0,0,0
1553855733000,97.14,0,0,0,0,0
1553855733015.62,91.41,0,0,0,0,0
1553855733031.25,92.3,0,0,0,0,0
1553855733046.88,96.85,0,0,0,0,0
1553855733062.5,101.8,0,0,0,0,0
1553855733078.12,104.81,0,0,0,0,0
1553855733093.75,104.82,0,0,0,0,0
1553855733109.38,101.71,0,0,0,0,0
1553855733125,95.61,0,0,0,0,0
1553855733140.62,86.41,0,0,0,0,0
1553855733156.25,73.7,0,0,0,0,0
1553855733171.88,57.19,0,0,0,0,0
1553855733187.5,37.06,0,0,0,0,0
1553855733203.12,14.43,0,0,0,0,0
1553855733218.75,-8.75,0,0,0,0,0
1553855733234.38,-30.16,0,0,0,0,0
1553855733250,-47.91,0,0,0,0,0
1553855733265.62,-61.35,0,0,0,0,0
1553855733281.25,-71.3,0,0,0,0,0
1553855733296.88,-79.79,0,0,0,0,0
1553855733312.5,-89.16,0,0,0,0,0
1553855733328.12,-101.14,0,0,0,0,0
1553855733343.75,-116.15,0,0,0,0,0
1553855733359.38,-133.02,0,0,0,0,0
1553855733375,-149.28,0,0,0,0,0
1553855733390.62,-161.79,0,0,0,0,0
1553855733406.25,-167.59,0,0,0,0,0
1553855733421.88,-164.58,0,0,0,0,0
1553855733437.5,-152.12,0,0,0,0,0
1553855733453.12,-131.15,0,0,0,0,0
1553855733468.75,-103.75,0,0,0,0,0
1553855733484.38,-72.47,0,0,0,0,0
1553855733500,-39.58,0,0,0,0,0
1553855733515.62,-6.58,0,0,0,0,0
1553855733531.25,25.73,0,0,0,0,0
1553855733546.88,56.92,0,0,0,0,0
1553855733562.5,86.34,0,0,0,0,0
1553855733578.12,112.97,0,0,0,0,0
1553855733593.75,135.45,0,0,0,0,0
1553855733609.38,152.58,0,0,0,0,0
1553855733625,163.77,0,0,0,0,0
1553855733640.62,169.27,0,0,0,0,0
1553855733656.25,170.11,0,0,0,0,0
1553855733671.88,167.93,0,0,0,0,0
1553855733687.5,164.5,0,0,0,0,0
1553855733703.12,161.43,0,0,0,0,0
1553855733718.75,159.81,0,0,0,0,0
1553855733734.38,159.97,0,0,0,0,0
1553855733750,161.45,0,0,0,0,0
1553855733765.62,163.06,0,0,0,0,0
1553855733781.25,163.23,0,0,0,0,0
1553855733796.88,160.44,0,0,0,0,0
1553855733812.5,153.72,0,0,0,0,0
1553855733828.12,143,0,0,0,0,0
1553855733843.75,129.01,0,0,0,0,0
1553855733859.38,112.93,0,0,0,0,0
1553855733875,96.03,0,0,0,0,0
1553855733890.62,79.11,0,0,0,0,0
1553855733906.25,62.56,0,0,0,0,0
1553855733921.88,46.55,0,0,0,0,0
1553855733937.5,31.34,0,0,0,0,0
1553855733953.12,17.54,0,0,0,0,0
1553855733968.75,5.81,0,0,0,0,0
1553855733984.38,-3.55,0,0,0,0,0
1553855734000,-11.08,0,0,0,0,0
1553855734015.62,-18.03,0,0,0,0,0
1553855734031.25,-25.95,0,0,0,0,0
1553855734046.88,-35.72,0,0,0,0,0
1553855734062.5,-47.1,0,0,0,0,0
1553855734078.12,-58.76,0,0,0,0,0
1553855734093.75,-69,0,0,0,0,0
1553855734109.38,-76.71,0,0,0,0,0
1553855734125,-81.9,0,0,0,0,0
1553855734140.62,-85.62,0,0,0,0,0
1553855734156.25,-89.13,0,0,0,0,0
1553855734171.88,-92.97,0,0,0,0,0
1553855734187.5,-96.48,0,0,0,0,0
1553855734203.12,-98.1,0,0,0,0,0
1553855734218.75,-96.29,0,0,0,0,0
1553855734234.38,-90.42,0,0,0,0,0
1553855734250,-81.4,0,0,0,0,0
1553855734265.62,-71.21,0,0,0,0,0
1553855734281.25,-62.08,0,0,0,0,0
1553855734296.88,-55.56,0,0,0,0,0
1553855734312.5,-52.08,0,0,0,0,0
1553855734328.12,-51.05,0,0,0,0,0
1553855734343.75,-51.53,0,0,0,0,0
1553855734359.38,-52.71,0,0,0,0,0
1553855734375,-54.25,0,0,0,0,0
1553855734390.62,-56.22,0,0,0,0,0
1553855734406.25,-58.76,0,0,0,0,0
1553855734421.88,-61.95,0,0,0,0,0
1553855734437.5,-65.71,0,0,0,0,0
1553855734453.12,-69.98,0,0,0,0,0
1553855734468.75,-74.76,0,0,0,0,0
1553855734484.38,-79.94,0,0,0,0,0
1553855734500,-85.13,0,0,0,0,0
1553855734515.62,-89.53,0,0,0,0,0
1553855734531.25,-92.16,0,0,0,0,0
1553855734546.88,-92.14,0,0,0,0,0
1553855734562.5,-89.23,0,0,0,0,0
1553855734578.12,-83.89,0,0,0,0,0
1553855734593.75,-77.2,0,0,0,0,0
1553855734609.38,-70.3,0,0,0,0,0
1553855734625,-63.85,0,0,0,0,0
1553855734640.62,-57.72,0,0,0,0,0
1553855734656.25,-51.07,0,0,0,0,0
1553855734671.88,-42.81,0,0,0,0,0
1553855734687.5,-32.14,0,0,0,0,0
1553855734703.12,-18.9,0,0,0,0,0
1553855734718.75,-3.73,0,0,0,0,0
1553855734734.38,12.32,0,0,0,0,0
1553855734750,28.1,0,0,0,0,0
1553855734765.62,42.81,0,0,0,0,0
1553855734781.25,56.15,0,0,0,0,0
1553855734796.88,68.38,0,0,0,0,0
1553855734812.5,80.14,0,0,0,0,0
1553855734828.12,92.37,0,0,0,0,0
1553855734843.75,106.09,0,0,0,0,0
1553855734859.38,122.07,0,0,0,0,0
1553855734875,140.45,0,0,0,0,0
1553855734890.62,160.27,0,0,0,0,0
1553855734906.25,179.6,0,0,0,0,0
1553855734921.88,195.83,0,0,0,0,0
1553855734937.5,206.6,0,0,0,0,0
1553855734953.12,210.56,0,0,0,0,0
1553855734968.75,207.71,0,0,0,0,0
1553855734984.38,198.97,0,0,0,0,0
1553855735000,185.44,0,0,0,0,0
1553855735015.62,167.75,0,0,0,0,0
1553855735031.25,146.13,0,0,0,0,0
1553855735046.88,120.93,0,0,0,0,0
1553855735062.5,93.43,0,0,0,0,0
1553855735078.12,66.03,0,0,0,0,0
1553855735093.75,41.68,0,0,0,0,0
1553855735109.38,22.77,0,0,0,0,0
1553855735125,10.13,0,0,0,0,0
1553855735140.62,2.82,0,0,0,0,0
1553855735156.25,-1.29,0,0,0,0,0
1553855735171.88,-4.42,0,0,0,0,0
1553855735187.5,-8,0,0,0,0,0
1553855735203.12,-12.18,0,0,0,0,0
1553855735218.75,-16.31,0,0,0,0,0
1553855735234.38,-19.52,0,0,0,0,0
1553855735250,-21.5,0,0,0,0,0
1553855735265.62,-22.61,0,0,0,0,0
1553855735281.25,-23.77,0,0,0,0,0
1553855735296.88,-25.84,0,0,0,0,0
1553855735312.5,-29.17,0,0,0,0,0
1553855735328.12,-33.34,0,0,0,0,0
1553855735343.75,-37.3,0,0,0,0,0
1553855735359.38,-39.91,0,0,0,0,0
1553855735375,-40.51,0,0,0,0,0
1553855735390.62,-39.35,0,0,0,0,0
1553855735406.25,-37.38,0,0,0,0,0
1553855735421.88,-36,0,0,0,0,0
1553855735437.5,-36.36,0,0,0,0,0
1553855735453.12,-39.01,0,0,0,0,0
1553855735468.75,-43.66,0,0,0,0,0
1553855735484.38,-49.36,0,0,0,0,0
1553855735500,-54.79,0,0,0,0,0
1553855735515.62,-58.74,0,0,0,0,0
1553855735531.25,-60.44,0,0,0,0,0
1553855735546.88,-59.83,0,0,0,0,0
1553855735562.5,-57.52,0,0,0,0,0
1553855735578.12,-54.35,0,0,0,0,0
1553855735593.75,-51.05,0,0,0,0,0
1553855735609.38,-47.82,0,0,0,0,0
1553855735625,-44.54,0,0,0,0,0
1553855735640.62,-40.92,0,0,0,0,0
1553855735656.25,-36.89,0,0,0,0,0
1553855735671.88,-32.67,0,0,0,0,0
1553855735687.5,-28.49,0,0,0,0,0
1553855735703.12,-24.27,0,0,0,0,0
1553855735718.75,-19.51,0,0,0,0,0
1553855735734.38,-13.44,0,0,0,0,0
1553855735750,-5.59,0,0,0,0,0
1553855735765.62,3.84,0,0,0,0,0
1553855735781.25,13.92,0,0,0,0,0
1553855735796.88,23.39,0,0,0,0,0
1553855735812.5,31.14,0,0,0,0,0
1553855735828.12,36.55,0,0,0,0,0
1553855735843.75,39.56,0,0,0,0,0
1553855735859.38,40.38,0,0,0,0,0
1553855735875,39.4,0,0,0,0,0
1553855735890.62,37.14,0,0,0,0,0
1553855735906.25,34.33,0,0,0,0,0
1553855735921.88,31.85,0,0,0,0,0
1553855735937.5,30.48,0,0,0,0,0
1553855735953.12,30.54,0,0,0,0,0
1553855735968.75,31.57,0,0,0,0,0
1553855735984.38,32.39,0,0,0,0,0
1553855736000,31.59,0,0,0,0,0
1553855736015.62,28.06,0,0,0,0,0
1553855736031.25,21.42,0,0,0,0,0
1553855736046.88,12.16,0,0,0,0,0
1553855736062.5,1.33,0,0,0,0,0
1553855736078.12,-9.83,0,0,0,0,0
1553855736093.75,-20.33,0,0,0,0,0
1553855736109.38,-29.58,0,0,0,0,0
1553855736125,-37.53,0,0,0,0,0
1553855736140.62,-44.53,0,0,0,0,0
1553855736156.25,-51.15,0,0,0,0,0
1553855736171.88,-57.91,0,0,0,0,0
1553855736187.5,-64.9,0,0,0,0,0
1553855736203.12,-71.68,0,0,0,0,0
1553855736218.75,-77.29,0,0,0,0,0
1553855736234.38,-80.66,0,0,0,0,0
1553855736250,-81.24,0,0,0,0,0
1553855736265.62,-79.44,0,0,0,0,0
1553855736281.25,-76.76,0,0,0,0,0
1553855736296.88,-75.41,0,0,0,0,0
1553855736312.5,-77.49,0,0,0,0,0
1553855736328.12,-84.05,0,0,0,0,0
1553855736343.75,-94.5,0,0,0,0,0
1553855736359.38,-106.63,0,0,0,0,0
1553855736375,-117.41,0,0,0,0,0
1553855736390.62,-124.27,0,0,0,0,0
1553855736406.25,-126.28,0,0,0,0,0
1553855736421.88,-124.67,0,0,0,0,0
1553855736437.5,-122.38,0,0,0,0,0
1553855736453.12,-122.79,0,0,0,0,0
1553855736468.75,-128.19,0,0,0,0,0
1553855736484.38,-138.84,0,0,0,0,0
1553855736500,-152.86,0,0,0,0,0
1553855736515.62,-167.03,0,0,0,0,0
1553855736531.25,-177.64,0,0,0,0,0
1553855736546.88,-181.04,0,0,0,0,0
1553855736562.5,-173.97,0,0,0,0,0
1553855736578.12,-154.12,0,0,0,0,0
1553855736593.75,-121.59,0,0,0,0,0
1553855736609.38,-80.08,0,0,0,0,0
1553855736625,-37.36,0,0,0,0,0
1553855736640.62,-3.42,0,0,0,0,0
1553855736656.25,13.14,0,0,0,0,0
1553855736671.88,9.02,0,0,0,0,0
1553855736687.5,-12.09,0,0,0,0,0
1553855736703.12,-41.05,0,0,0,0,0
1553855736718.75,-67.68,0,0,0,0,0
1553855736734.38,-85.68,0,0,0,0,0
1553855736750,-94.83,0,0,0,0,0
1553855736765.62,-99.45,0,0,0,0,0
1553855736781.25,-104.08,0,0,0,0,0
1553855736796.88,-109.67,0,0,0,0,0
1553855736812.5,-112.84,0,0,0,0,0
1553855736828.12,-108.58,0,0,0,0,0
1553855736843.75,-94.3,0,0,0,0,0
1553855736859.38,-72.21,0,0,0,0,0
1553855736875,-48.36,0,0,0,0,0
1553855736890.62,-28.91,0,0,0,0,0
1553855736906.25,-16.34,0,0,0,0,0
1553855736921.88,-8.22,0,0,0,0,0
1553855736937.5,0.85,0,0,0,0,0
1553855736953.12,15.42,0,0,0,0,0
1553855736968.75,36.12,0,0,0,0,0
1553855736984.38,59.22,0,0,0,0,0
1553855737000,78.98,0,0,0,0,0
1553855737015.62,90.9,0,0,0,0,0
1553855737031.25,94.14,0,0,0,0,0
1553855737046.88,91.68,0,0,0,0,0
1553855737062.5,88.45,0,0,0,0,0
1553855737078.12,88.96,0,0,0,0,0
1553855737093.75,95.65,0,0,0,0,0
1553855737109.38,108.33,0,0,0,0,0
1553855737125,124.45,0,0,0,0,0
1553855737140.62,139.83,0,0,0,0,0
1553855737156.25,149.32,0,0,0,0,0
1553855737171.88,147.96,0,0,0,0,0
1553855737187.5,132.18,0,0,0,0,0
1553855737203.12,101.2,0,0,0,0,0
1553855737218.75,58.34,0,0,0,0,0
1553855737234.38,10.64,0,0,0,0,0
1553855737250,-32.99,0,0,0,0,0
1553855737265.62,-64.32,0,0,0,0,0
1553855737281.25,-78.06,0,0,0,0,0
1553855737296.88,-73.13,0,0,0,0,0
1553855737312.5,-52.52,0,0,0,0,0
1553855737328.12,-22.35,0,0,0,0,0
1553855737343.75,9.81,0,0,0,0,0
1553855737359.38,36.64,0,0,0,0,0
1553855737375,52.71,0,0,0,0,0
1553855737390.62,55.79,0,0,0,0,0
1553855737406.25,47.29,0,0,0,0,0
1553855737421.88,31.68,0,0,0,0,0
1553855737437.5,14.69,0,0,0,0,0
1553855737453.12,1.14,0,0,0,0,0
1553855737468.75,-6.54,0,0,0,0,0
1553855737484.38,-8.54,0,0,0,0,0
1553855737500,-6.66,0,0,0,0,0
1553855737515.62,-2.87,0,0,0,0,0
1553855737531.25,1.54,0,0,0,0,0
1553855737546.88,6,0,0,0,0,0
1553855737562.5,9.93,0,0,0,0,0
1553855737578.12,12.31,0,0,0,0,0
1553855737593.75,12.19,0,0,0,0,0
1553855737609.38,9.36,0,0,0,0,0
1553855737625,4.75,0,0,0,0,0
1553855737640.62,0.04,0,0,0,0,0
1553855737656.25,-3.45,0,0,0,0,0
1553855737671.88,-5.68,0,0,0,0,0
1553855737687.5,-8.07,0,0,0,0,0
1553855737703.12,-12.81,0,0,0,0,0
1553855737718.75,-21.66,0,0,0,0,0
1553855737734.38,-34.79,0,0,0,0,0
1553855737750,-50.55,0,0,0,0,0
1553855737765.62,-65.99,0,0,0,0,0
1553855737781.25,-77.85,0,0,0,0,0
1553855737796.88,-83.66,0,0,0,0,0
1553855737812.5,-82.47,0,0,0,0,0
1553855737828.12,-75.13,0,0,0,0,0
1553855737843.75,-63.84,0,0,0,0,0
1553855737859.38,-51.41,0,0,0,0,0
1553855737875,-40.13,0,0,0,0,0
1553855737890.62,-31.21,0,0,0,0,0
1553855737906.25,-24.59,0,0,0,0,0
1553855737921.88,-19.42,0,0,0,0,0
1553855737937.5,-14.67,0,0,0,0,0
1553855737953.12,-9.92,0,0,0,0,0
1553855737968.75,-5.44,0,0,0,0,0
1553855737984.38,-2.01,0,0,0,0,0
1553855738000,-0.51,0,0,0,0,0
1553855738015.62,-1.41,0,0,0,0,0
1553855738031.25,-4.58,0,0,0,0,0
1553855738046.88,-9.29,0,0,0,0,0
1553855738062.5,-14.41,0,0,0,0,0
1553855738078.12,-18.75,0,0,0,0,0
1553855738093.75,-21.27,0,0,0,0,0
1553855738109.38,-21.4,0,0,0,0,0
1553855738125,-19.21,0,0,0,0,0
1553855738140.62,-15.64,0,0,0,0,0
1553855738156.25,-12.35,0,0,0,0,0
1553855738171.88,-11.43,0,0,0,0,0
1553855738187.5,-14.72,0,0,0,0,0
1553855738203.12,-23,0,0,0,0,0
1553855738218.75,-35.34,0,0,0,0,0
1553855738234.38,-49.07,0,0,0,0,0
1553855738250,-60.45,0,0,0,0,0
1553855738265.62,-65.98,0,0,0,0,0
1553855738281.25,-63.73,0,0,0,0,0
1553855738296.88,-53.81,0,0,0,0,0
1553855738312.5,-38.06,0,0,0,0,0
1553855738328.12,-18.65,0,0,0,0,0
1553855738343.75,3.3,0,0,0,0,0
1553855738359.38,28.4,0,0,0,0,0
1553855738375,58.18,0,0,0,0,0
1553855738390.62,93.33,0,0,0,0,0
1553855738406.25,132.09,0,0,0,0,0
1553855738421.88,169.5,0,0,0,0,0
1553855738437.5,198.82,0,0,0,0,0
1553855738453.12,213.91,0,0,0,0,0
1553855738468.75,211.85,0,0,0,0,0
1553855738484.38,194.2,0,0,0,0,0
1553855738500,166.83,0,0,0,0,0
1553855738515.62,138.19,0,0,0,0,0
1553855738531.25,117.04,0,0,0,0,0
1553855738546.88,109.73,0,0,0,0,0
1553855738562.5,118.25,0,0,0,0,0
1553855738578.12,139.3,0,0,0,0,0
1553855738593.75,165.03,0,0,0,0,0
1553855738609.38,185.1,0,0,0,0,0
1553855738625,189.98,0,0,0,0,0
1553855738640.62,173.99,0,0,0,0,0
1553855738656.25,137.23,0,0,0,0,0
1553855738671.88,85.35,0,0,0,0,0
1553855738687.5,27.37,0,0,0,0,0
1553855738703.12,-27.52,0,0,0,0,0
1553855738718.75,-72.56,0,0,0,0,0
1553855738734.38,-104.56,0,0,0,0,0
1553855738750,-123.39,0,0,0,0,0
1553855738765.62,-130.56,0,0,0,0,0
1553855738781.25,-127.96,0,0,0,0,0
1553855738796.88,-117.34,0,0,0,0,0
1553855738812.5,-100.72,0,0,0,0,0
1553855738828.12,-80.85,0,0,0,0,0
1553855738843.75,-61.33,0,0,0,0,0
1553855738859.38,-45.82,0,0,0,0,0
1553855738875,-37.01,0,0,0,0,0
1553855738890.62,-35.42,0,0,0,0,0
1553855738906.25,-38.78,0,0,0,0,0
1553855738921.88,-42.81,0,0,0,0,0
1553855738937.5,-42.85,0,0,0,0,0
1553855738953.12,-35.79,0,0,0,0,0
1553855738968.75,-21.22,0,0,0,0,0
1553855738984.38,-1.5,0,0,0,0,0
1553855739000,19.52,0,0,0,0,0
1553855739015.62,38.17,0,0,0,0,0
1553855739031.25,52.37,0,0,0,0,0
1553855739046.88,62.05,0,0,0,0,0
1553855739062.5,68.54,0,0,0,0,0
1553855739078.12,73.5,0,0,0,0,0
1553855739093.75,77.9,0,0,0,0,0
1553855739109.38,81.63,0,0,0,0,0
1553855739125,83.72,0,0,0,0,0
1553855739140.62,83.07,0,0,0,0,0
1553855739156.25,79.05,0,0,0,0,0
1553855739171.88,71.99,0,0,0,0,0
1553855739187.5,63.05,0,0,0,0,0
1553855739203.12,53.76,0,0,0,0,0
1553855739218.75,45.51,0,0,0,0,0
1553855739234.38,39.03,0,0,0,0,0
1553855739250,34.36,0,0,0,0,0
1553855739265.62,30.91,0,0,0,0,0
1553855739281.25,27.86,0,0,0,0,0
1553855739296.88,24.47,0,0,0,0,0
1553855739312.5,20.42,0,0,0,0,0
1553855739328.12,15.73,0,0,0,0,0
1553855739343.75,10.69,0,0,0,0,0
1553855739359.38,5.82,0,0,0,0,0
1553855739375,1.7,0,0,0,0,0
1553855739390.62,-1.02,0,0,0,0,0
1553855739406.25,-1.81,0,0,0,0,0
1553855739421.88,-0.45,0,0,0,0,0
1553855739437.5,2.8,0,0,0,0,0
1553855739453.12,7.23,0,0,0,0,0
1553855739468.75,12,0,0,0,0,0
1553855739484.38,16.46,0,0,0,0,0
1553855739500,20.59,0,0,0,0,0
1553855739515.62,24.94,0,0,0,0,0
1553855739531.25,30.33,0,0,0,0,0
1553855739546.88,37.38,0,0,0,0,0
1553855739562.5,46.04,0,0,0,0,0
1553855739578.12,55.55,0,0,0,0,0
1553855739593.75,64.7,0,0,0,0,0
1553855739609.38,72.25,0,0,0,0,0
1553855739625,77.46,0,0,0,0,0
1553855739640.62,80.2,0,0,0,0,0
1553855739656.25,80.9,0,0,0,0,0
1553855739671.88,80.24,0,0,0,0,0
1553855739687.5,78.88,0,0,0,0,0
1553855739703.12,77.43,0,0,0,0,0
1553855739718.75,76.43,0,0,0,0,0
1553855739734.38,76.51,0,0,0,0,0
1553855739750,78.19,0,0,0,0,0
1553855739765.62,81.73,0,0,0,0,0
1553855739781.25,86.84,0,0,0,0,0
1553855739796.88,92.49,0,0,0,0,0
1553855739812.5,97.15,0,0,0,0,0
1553855739828.12,99.15,0,0,0,0,0
1553855739843.75,97.19,0,0,0,0,0
1553855739859.38,90.85,0,0,0,0,0
1553855739875,80.63,0,0,0,0,0
1553855739890.62,67.82,0,0,0,0,0
1553855739906.25,53.99,0,0,0,0,0
1553855739921.88,40.53,0,0,0,0,0
1553855739937.5,28.32,0,0,0,0,0
1553855739953.12,17.7,0,0,0,0,0
1553855739968.75,8.47,0,0,0,0,0
1553855739984.38,0.15,0,0,0,0,0
1553855740000,-7.8,0,0,0,0,0
1553855740015.62,-15.89,0,0,0,0,0
1553855740031.25,-24.43,0,0,0,0,0
1553855740046.88,-33.47,0,0,0,0,0
1553855740062.5,-42.69,0,0,0,0,0
1553855740078.12,-51.38,0,0,0,0,0
1553855740093.75,-58.47,0,0,0,0,0
1553855740109.38,-62.9,0,0,0,0,0
1553855740125,-63.98,0,0,0,0,0
1553855740140.62,-61.73,0,0,0,0,0
1553855740156.25,-56.89,0,0,0,0,0
1553855740171.88,-50.69,0,0,0,0,0
1553855740187.5,-44.35,0,0,0,0,0
1553855740203.12,-38.77,0,0,0,0,0
1553855740218.75,-34.32,0,0,0,0,0
1553855740234.38,-30.93,0,0,0,0,0
1553855740250,-28.3,0,0,0,0,0
1553855740265.62,-26.15,0,0,0,0,0
1553855740281.25,-24.35,0,0,0,0,0
1553855740296.88,-22.97,0,0,0,0,0
1553855740312.5,-22.19,0,0,0,0,0
1553855740328.12,-22.07,0,0,0,0,0
1553855740343.75,-22.53,0,0,0,0,0
1553855740359.38,-23.18,0,0,0,0,0
1553855740375,-23.49,0,0,0,0,0
1553855740390.62,-23.03,0,0,0,0,0
1553855740406.25,-21.76,0,0,0,0,0
1553855740421.88,-20.03,0,0,0,0,0
1553855740437.5,-18.44,0,0,0,0,0
1553855740453.12,-17.45,0,0,0,0,0
1553855740468.75,-17,0,0,0,0,0
1553855740484.38,-16.41,0,0,0,0,0
1553855740500,-14.75,0,0,0,0,0
1553855740515.62,-11.3,0,0,0,0,0
1553855740531.25,-6.07,0,0,0,0,0
1553855740546.88,0.08,0,0,0,0,0
1553855740562.5,5.78,0,0,0,0,0
1553855740578.12,9.67,0,0,0,0,0
1553855740593.75,10.98,0,0,0,0,0
1553855740609.38,9.7,0,0,0,0,0
1553855740625,6.44,0,0,0,0,0
1553855740640.62,2.11,0,0,0,0,0
1553855740656.25,-2.48,0,0,0,0,0
1553855740671.88,-6.8,0,0,0,0,0
1553855740687.5,-10.54,0,0,0,0,0
1553855740703.12,-13.62,0,0,0,0,0
1553855740718.75,-15.98,0,0,0,0,0
1553855740734.38,-17.69,0,0,0,0,0
1553855740750,-18.9,0,0,0,0,0
1553855740765.62,-19.88,0,0,0,0,0
1553855740781.25,-21.02,0,0,0,0,0
1553855740796.88,-22.72,0,0,0,0,0
1553855740812.5,-25.32,0,0,0,0,0
1553855740828.12,-28.88,0,0,0,0,0
1553855740843.75,-33.1,0,0,0,0,0
1553855740859.38,-37.3,0,0,0,0,0
1553855740875,-40.55,0,0,0,0,0
1553855740890.62,-41.92,0,0,0,0,0
1553855740906.25,-40.86,0,0,0,0,0
1553855740921.88,-37.39,0,0,0,0,0
1553855740937.5,-32.07,0,0,0,0,0
1553855740953.12,-25.8,0,0,0,0,0
1553855740968.75,-19.42,0,0,0,0,0
1553855740984.38,-13.46,0,0,0,0,0
1553855741000,-8.04,0,0,0,0,0
1553855741015.62,-3.04,0,0,0,0,0
1553855741031.25,1.75,0,0,0,0,0
1553855741046.88,6.41,0,0,0,0,0
1553855741062.5,10.89,0,0,0,0,0
1553855741078.12,15.01,0,0,0,0,0
1553855741093.75,18.55,0,0,0,0,0
1553855741109.38,21.33,0,0,0,0,0
1553855741125,23.22,0,0,0,0,0
1553855741140.62,24.26,0,0,0,0,0
1553855741156.25,24.61,0,0,0,0,0
1553855741171.88,24.49,0,0,0,0,0
1553855741187.5,24.14,0,0,0,0,0
1553855741203.12,23.58,0,0,0,0,0
1553855741218.75,22.79,0,0,0,0,0
1553855741234.38,21.69,0,0,0,0,0
1553855741250,20.34,0,0,0,0,0
1553855741265.62,18.94,0,0,0,0,0
1553855741281.25,17.78,0,0,0,0,0
1553855741296.88,17,0,0,0,0,0
1553855741312.5,16.47,0,0,0,0,0
1553855741328.12,15.75,0,0,0,0,0
1553855741343.75,14.36,0,0,0,0,0
1553855741359.38,11.93,0,0,0,0,0
1553855741375,8.42,0,0,0,0,0
1553855741390.62,4.15,0,0,0,0,0
1553855741406.25,-0.41,0,0,0,0,0
1553855741421.88,-4.75,0,0,0,0,0
1553855741437.5,-8.54,0,0,0,0,0
1553855741453.12,-11.63,0,0,0,0,0
1553855741468.75,-14.07,0,0,0,0,0
1553855741484.38,-16.01,0,0,0,0,0
1553855741500,-17.65,0,0,0,0,0
1553855741515.62,-19.21,0,0,0,0,0
1553855741531.25,-20.87,0,0,0,0,0
1553855741546.88,-22.82,0,0,0,0,0
1553855741562.5,-25.09,0,0,0,0,0
1553855741578.12,-27.62,0,0,0,0,0
1553855741593.75,-30.21,0,0,0,0,0
1553855741609.38,-32.39,0,0,0,0,0
1553855741625,-33.64,0,0,0,0,0
1553855741640.62,-33.48,0,0,0,0,0
1553855741656.25,-31.64,0,0,0,0,0
1553855741671.88,-28.23,0,0,0,0,0
1553855741687.5,-23.63,0,0,0,0,0
1553855741703.12,-18.48,0,0,0,0,0
1553855741718.75,-13.37,0,0,0,0,0
1553855741734.38,-8.85,0,0,0,0,0
1553855741750,-5.22,0,0,0,0,0
1553855741765.62,-2.6,0,0,0,0,0
1553855741781.25,-0.91,0,0,0,0,0
1553855741796.88,0.16,0,0,0,0,0
1553855741812.5,1.07,0,0,0,0,0
1553855741828.12,2.34,0,0,0,0,0
1553855741843.75,4.41,0,0,0,0,0
1553855741859.38,7.39,0,0,0,0,0
1553855741875,10.97,0,0,0,0,0
1553855741890.62,14.54,0,0,0,0,0
1553855741906.25,17.32,0,0,0,0,0
1553855741921.88,18.73,0,0,0,0,0
1553855741937.5,18.58,0,0,0,0,0
1553855741953.12,17.19,0,0,0,0,0
1553855741968.75,15.22,0,0,0,0,0
1553855741984.38,13.48,0,0,0,0,0
1553855742000,12.58,0,0,0,0,0
1553855742015.62,12.78,0,0,0,0,0
1553855742031.25,13.85,0,0,0,0,0
1553855742046.88,15.1,0,0,0,0,0
1553855742062.5,15.77,0,0,0,0,0
1553855742078.12,15.29,0,0,0,0,0
1553855742093.75,13.55,0,0,0,0,0
1553855742109.38,10.87,0,0,0,0,0
1553855742125,7.73,0,0,0,0,0
1553855742140.62,4.47,0,0,0,0,0
1553855742156.25,1.14,0,0,0,0,0
1553855742171.88,-2.44,0,0,0,0,0
1553855742187.5,-6.43,0,0,0,0,0
1553855742203.12,-10.7,0,0,0,0,0
1553855742218.75,-14.84,0,0,0,0,0
1553855742234.38,-18.45,0,0,0,0,0
1553855742250,-21.45,0,0,0,0,0
1553855742265.62,-24.31,0,0,0,0,0
1553855742281.25,-27.87,0,0,0,0,0
1553855742296.88,-32.85,0,0,0,0,0
1553855742312.5,-39.41,0,0,0,0,0
1553855742328.12,-46.94,0,0,0,0,0
1553855742343.75,-54.32,0,0,0,0,0
1553855742359.38,-60.36,0,0,0,0,0
1553855742375,-64.41,0,0,0,0,0
1553855742390.62,-66.5,0,0,0,0,0
1553855742406.25,-67.23,0,0,0,0,0
1553855742421.88,-67.27,0,0,0,0,0
1553855742437.5,-67.02,0,0,0,0,0
1553855742453.12,-66.35,0,0,0,0,0
1553855742468.75,-64.73,0,0,0,0,0
1553855742484.38,-61.48,0,0,0,0,0
1553855742500,-55.98,0,0,0,0,0
1553855742515.62,-47.83,0,0,0,0,0
1553855742531.25,-36.86,0,0,0,0,0
1553855742546.88,-23.26,0,0,0,0,0
1553855742562.5,-7.77,0,0,0,0,0
1553855742578.12,8.28,0,0,0,0,0
1553855742593.75,23.02,0,0,0,0,0
1553855742609.38,34.63,0,0,0,0,0
1553855742625,41.93,0,0,0,0,0
1553855742640.62,44.89,0,0,0,0,0
1553855742656.25,44.76,0,0,0,0,0
1553855742671.88,43.65,0,0,0,0,0
1553855742687.5,43.65,0,0,0,0,0
1553855742703.12,46.19,0,0,0,0,0
1553855742718.75,51.56,0,0,0,0,0
1553855742734.38,58.97,0,0,0,0,0
1553855742750,66.99,0,0,0,0,0
1553855742765.62,73.98,0,0,0,0,0
1553855742781.25,78.5,0,0,0,0,0
1553855742796.88,79.49,0,0,0,0,0
1553855742812.5,76.52,0,0,0,0,0
1553855742828.12,69.77,0,0,0,0,0
1553855742843.75,60.04,0,0,0,0,0
1553855742859.38,48.56,0,0,0,0,0
1553855742875,36.69,0,0,0,0,0
1553855742890.62,25.61,0,0,0,0,0
1553855742906.25,16.03,0,0,0,0,0
1553855742921.88,8.18,0,0,0,0,0
1553855742937.5,1.96,0,0,0,0,0
1553855742953.12,-2.64,0,0,0,0,0
1553855742968.75,-5.35,0,0,0,0,0
1553855742984.38,-5.63,0,0,0,0,0
1553855743000,-3,0,0,0,0,0
1553855743015.62,2.48,0,0,0,0,0
1553855743031.25,9.92,0,0,0,0,0
1553855743046.88,17.78,0,0,0,0,0
1553855743062.5,24.5,0,0,0,0,0
1553855743078.12,29.18,0,0,0,0,0
1553855743093.75,32.1,0,0,0,0,0
1553855743109.38,34.41,0,0,0,0,0
1553855743125,37.7,0,0,0,0,0
1553855743140.62,43.19,0,0,0,0,0
1553855743156.25,51.32,0,0,0,0,0
1553855743171.88,61.96,0,0,0,0,0
1553855743187.5,74.43,0,0,0,0,0
1553855743203.12,87.51,0,0,0,0,0
1553855743218.75,99.14,0,0,0,0,0
1553855743234.38,106.49,0,0,0,0,0
1553855743250,106.78,0,0,0,0,0
1553855743265.62,98.68,0,0,0,0,0
1553855743281.25,83.51,0,0,0,0,0
1553855743296.88,65.16,0,0,0,0,0
1553855743312.5,48.52,0,0,0,0,0
1553855743328.12,37.06,0,0,0,0,0
1553855743343.75,30.98,0,0,0,0,0
1553855743359.38,27.2,0,0,0,0,0
1553855743375,21.11,0,0,0,0,0
1553855743390.62,9.18,0,0,0,0,0
1553855743406.25,-9.24,0,0,0,0,0
1553855743421.88,-31.96,0,0,0,0,0
1553855743437.5,-55.36,0,0,0,0,0
1553855743453.12,-76.32,0,0,0,0,0
1553855743468.75,-93.25,0,0,0,0,0
1553855743484.38,-106.01,0,0,0,0,0
1553855743500,-114.93,0,0,0,0,0
1553855743515.62,-120.09,0,0,0,0,0
1553855743531.25,-121.25,0,0,0,0,0
1553855743546.88,-118.47,0,0,0,0,0
1553855743562.5,-112.75,0,0,0,0,0
1553855743578.12,-106.08,0,0,0,0,0
1553855743593.75,-100.8,0,0,0,0,0
1553855743609.38,-98.71,0,0,0,0,0
1553855743625,-99.97,0,0,0,0,0
1553855743640.62,-102.6,0,0,0,0,0
1553855743656.25,-102.86,0,0,0,0,0
1553855743671.88,-96.51,0,0,0,0,0
1553855743687.5,-80.54,0,0,0,0,0
1553855743703.12,-54.87,0,0,0,0,0
1553855743718.75,-22.92,0,0,0,0,0
1553855743734.38,9.34,0,0,0,0,0
1553855743750,35.52,0,0,0,0,0
1553855743765.62,51.21,0,0,0,0,0
1553855743781.25,55.35,0,0,0,0,0
1553855743796.88,50.02,0,0,0,0,0
1553855743812.5,38.94,0,0,0,0,0
1553855743828.12,25.67,0,0,0,0,0
1553855743843.75,12.53,0,0,0,0,0
1553855743859.38,0.57,0,0,0,0,0
1553855743875,-9.78,0,0,0,0,0
1553855743890.62,-18.06,0,0,0,0,0
1553855743906.25,-23.78,0,0,0,0,0
1553855743921.88,-26.74,0,0,0,0,0
1553855743937.5,-27.19,0,0,0,0,0
1553855743953.12,-25.52,0,0,0,0,0
1553855743968.75,-21.49,0,0,0,0,0
1553855743984.38,-13.95,0,0,0,0,0
1553855744000,-1.78,0,0,0,0,0
1553855744015.62,14.76,0,0,0,0,0
1553855744031.25,33.04,0,0,0,0,0
1553855744046.88,48.61,0,0,0,0,0
1553855744062.5,57,0,0,0,0,0
1553855744078.12,55.95,0,0,0,0,0
1553855744093.75,46.72,0,0,0,0,0
1553855744109.38,33.55,0,0,0,0,0
1553855744125,21.31,0,0,0,0,0
1553855744140.62,13.13,0,0,0,0,0
1553855744156.25,9.03,0,0,0,0,0
1553855744171.88,6.66,0,0,0,0,0
1553855744187.5,3.36,0,0,0,0,0
1553855744203.12,-1.85,0,0,0,0,0
1553855744218.75,-7.64,0,0,0,0,0
1553855744234.38,-11.42,0,0,0,0,0
1553855744250,-11.24,0,0,0,0,0
1553855744265.62,-7.24,0,0,0,0,0
1553855744281.25,-1.72,0,0,0,0,0
1553855744296.88,2.22,0,0,0,0,0
1553855744312.5,2.33,0,0,0,0,0
1553855744328.12,-1.6,0,0,0,0,0
1553855744343.75,-7.7,0,0,0,0,0
1553855744359.38,-13.15,0,0,0,0,0
1553855744375,-15.74,0,0,0,0,0
1553855744390.62,-14.84,0,0,0,0,0
1553855744406.25,-11.58,0,0,0,0,0
1553855744421.88,-8.01,0,0,0,0,0
1553855744437.5,-5.92,0,0,0,0,0
1553855744453.12,-6,0,0,0,0,0
1553855744468.75,-7.78,0,0,0,0,0
1553855744484.38,-9.89,0,0,0,0,0
1553855744500,-10.84,0,0,0,0,0
1553855744515.62,-9.84,0,0,0,0,0
1553855744531.25,-7.08,0,0,0,0,0
1553855744546.88,-3.59,0,0,0,0,0
1553855744562.5,-0.78,0,0,0,0,0
1553855744578.12,0.27,0,0,0,0,0
1553855744593.75,-0.83,0,0,0,0,0
1553855744609.38,-3.69,0,0,0,0,0
1553855744625,-7.51,0,0,0,0,0
1553855744640.62,-11.48,0,0,0,0,0
1553855744656.25,-15.15,0,0,0,0,0
1553855744671.88,-18.33,0,0,0,0,0
1553855744687.5,-20.97,0,0,0,0,0
1553855744703.12,-22.88,0,0,0,0,0
1553855744718.75,-23.63,0,0,0,0,0
1553855744734.38,-22.81,0,0,0,0,0
1553855744750,-20.34,0,0,0,0,0
1553855744765.62,-16.72,0,0,0,0,0
1553855744781.25,-12.97,0,0,0,0,0
1553855744796.88,-10.35,0,0,0,0,0
1553855744812.5,-9.83,0,0,0,0,0
1553855744828.12,-11.76,0,0,0,0,0
1553855744843.75,-15.85,0,0,0,0,0
1553855744859.38,-21.25,0,0,0,0,0
1553855744875,-27.08,0,0,0,0,0
1553855744890.62,-32.67,0,0,0,0,0
1553855744906.25,-37.68,0,0,0,0,0
1553855744921.88,-41.97,0,0,0,0,0
1553855744937.5,-45.48,0,0,0,0,0
1553855744953.12,-48.08,0,0,0,0,0
1553855744968.75,-49.67,0,0,0,0,0
1553855744984.38,-50.28,0,0,0,0,0
1553855745000,-50.22,0,0,0,0,0
1553855745015.62,-50.02,0,0,0,0,0
1553855745031.25,-50.15,0,0,0,0,0
1553855745046.88,-50.69,0,0,0,0,0
1553855745062.5,-51.21,0,0,0,0,0
1553855745078.12,-50.84,0,0,0,0,0
1553855745093.75,-48.72,0,0,0,0,0
1553855745109.38,-44.33,0,0,0,0,0
1553855745125,-37.81,0,0,0,0,0
1553855745140.62,-29.95,0,0,0,0,0
1553855745156.25,-21.95,0,0,0,0,0
1553855745171.88,-14.96,0,0,0,0,0
1553855745187.5,-9.73,0,0,0,0,0
1553855745203.12,-6.42,0,0,0,0,0
1553855745218.75,-4.57,0,0,0,0,0
1553855745234.38,-3.38,0,0,0,0,0
1553855745250,-2.04,0,0,0,0,0
1553855745265.62,-0.02,0,0,0,0,0
1553855745281.25,2.72,0,0,0,0,0
1553855745296.88,5.79,0,0,0,0,0
1553855745312.5,8.66,0,0,0,0,0
1553855745328.12,10.95,0,0,0,0,0
1553855745343.75,12.64,0,0,0,0,0
1553855745359.38,14.04,0,0,0,0,0
1553855745375,15.51,0,0,0,0,0
1553855745390.62,17.16,0,0,0,0,0
1553855745406.25,18.7,0,0,0,0,0
1553855745421.88,19.71,0,0,0,0,0
1553855745437.5,19.88,0,0,0,0,0
1553855745453.12,19.36,0,0,0,0,0
1553855745468.75,18.74,0,0,0,0,0
1553855745484.38,18.75,0,0,0,0,0
1553855745500,19.9,0,0,0,0,0
1553855745515.62,22.14,0,0,0,0,0
1553855745531.25,24.96,0,0,0,0,0
1553855745546.88,27.69,0,0,0,0,0
1553855745562.5,29.84,0,0,0,0,0
1553855745578.12,31.48,0,0,0,0,0
1553855745593.75,33.15,0,0,0,0,0
1553855745609.38,35.59,0,0,0,0,0
1553855745625,39.31,0,0,0,0,0
1553855745640.62,44.32,0,0,0,0,0
1553855745656.25,50.04,0,0,0,0,0
1553855745671.88,55.52,0,0,0,0,0
1553855745687.5,59.81,0,0,0,0,0
1553855745703.12,62.26,0,0,0,0,0
1553855745718.75,62.64,0,0,0,0,0
1553855745734.38,60.99,0,0,0,0,0
1553855745750,57.46,0,0,0,0,0
1553855745765.62,52.13,0,0,0,0,0
1553855745781.25,44.95,0,0,0,0,0
1553855745796.88,35.85,0,0,0,0,0
1553855745812.5,24.86,0,0,0,0,0
1553855745828.12,12.14,0,0,0,0,0
1553855745843.75,-1.95,0,0,0,0,0
1553855745859.38,-16.81,0,0,0,0,0
1553855745875,-31.65,0,0,0,0,0
1553855745890.62,-45.39,0,0,0,0,0
1553855745906.25,-56.74,0,0,0,0,0
1553855745921.88,-64.37,0,0,0,0,0
1553855745937.5,-67.27,0,0,0,0,0
1553855745953.12,-65.02,0,0,0,0,0
1553855745968.75,-58.01,0,0,0,0,0
1553855745984.38,-47.52,0,0,0,0,0
1553855746000,-35.4,0,0,0,0,0
1553855746015.62,-23.73,0,0,0,0,0
1553855746031.25,-14.22,0,0,0,0,0
1553855746046.88,-7.8,0,0,0,0,0
1553855746062.5,-4.44,0,0,0,0,0
1553855746078.12,-3.25,0,0,0,0,0
1553855746093.75,-2.89,0,0,0,0,0
1553855746109.38,-2.08,0,0,0,0,0
1553855746125,-0.06,0,0,0,0,0
1553855746140.62,3.31,0,0,0,0,0
1553855746156.25,7.65,0,0,0,0,0
1553855746171.88,12.4,0,0,0,0,0
1553855746187.5,17.02,0,0,0,0,0
1553855746203.12,21.09,0,0,0,0,0
1553855746218.75,24.34,0,0,0,0,0
1553855746234.38,26.62,0,0,0,0,0
1553855746250,28,0,0,0,0,0
1553855746265.62,28.82,0,0,0,0,0
1553855746281.25,29.67,0,0,0,0,0
1553855746296.88,31.14,0,0,0,0,0
1553855746312.5,33.49,0,0,0,0,0
1553855746328.12,36.5,0,0,0,0,0
1553855746343.75,39.42,0,0,0,0,0
1553855746359.38,41.4,0,0,0,0,0
1553855746375,41.87,0,0,0,0,0
1553855746390.62,40.86,0,0,0,0,0
1553855746406.25,38.98,0,0,0,0,0
1553855746421.88,37.04,0,0,0,0,0
1553855746437.5,35.58,0,0,0,0,0
1553855746453.12,34.58,0,0,0,0,0
1553855746468.75,33.53,0,0,0,0,0
1553855746484.38,31.7,0,0,0,0,0
1553855746500,28.44,0,0,0,0,0
1553855746515.62,23.51,0,0,0,0,0
1553855746531.25,17.1,0,0,0,0,0
1553855746546.88,9.79,0,0,0,0,0
1553855746562.5,2.51,0,0,0,0,0
1553855746578.12,-3.68,0,0,0,0,0
1553855746593.75,-7.79,0,0,0,0,0
1553855746609.38,-9.23,0,0,0,0,0
1553855746625,-8.05,0,0,0,0,0
1553855746640.62,-5.11,0,0,0,0,0
1553855746656.25,-1.77,0,0,0,0,0
1553855746671.88,0.66,0,0,0,0,0
1553855746687.5,1.5,0,0,0,0,0
1553855746703.12,0.86,0,0,0,0,0
1553855746718.75,-0.42,0,0,0,0,0
1553855746734.38,-1.51,0,0,0,0,0
1553855746750,-2.24,0,0,0,0,0
1553855746765.62,-3.22,0,0,0,0,0
1553855746781.25,-5.64,0,0,0,0,0
1553855746796.88,-10.51,0,0,0,0,0
1553855746812.5,-18.11,0,0,0,0,0
1553855746828.12,-27.64,0,0,0,0,0
1553855746843.75,-37.58,0,0,0,0,0
1553855746859.38,-46.21,0,0,0,0,0
1553855746875,-52.33,0,0,0,0,0
1553855746890.62,-55.51,0,0,0,0,0
1553855746906.25,-55.98,0,0,0,0,0
1553855746921.88,-54.43,0,0,0,0,0
1553855746937.5,-51.52,0,0,0,0,0
1553855746953.12,-47.7,0,0,0,0,0
1553855746968.75,-43.17,0,0,0,0,0
1553855746984.38,-38.03,0,0,0,0,0
1553855747000,-32.49,0,0,0,0,0
1553855747015.62,-27.08,0,0,0,0,0
1553855747031.25,-22.76,0,0,0,0,0
1553855747046.88,-20.7,0,0,0,0,0
1553855747062.5,-21.83,0,0,0,0,0
1553855747078.12,-26.42,0,0,0,0,0
1553855747093.75,-33.86,0,0,0,0,0
1553855747109.38,-42.84,0,0,0,0,0
1553855747125,-51.86,0,0,0,0,0
1553855747140.62,-59.9,0,0,0,0,0
1553855747156.25,-66.82,0,0,0,0,0
1553855747171.88,-73.27,0,0,0,0,0
1553855747187.5,-80.36,0,0,0,0,0
1553855747203.12,-89.14,0,0,0,0,0
1553855747218.75,-100.07,0,0,0,0,0
1553855747234.38,-112.78,0,0,0,0,0
1553855747250,-125.99,0,0,0,0,0
1553855747265.62,-137.53,0,0,0,0,0
1553855747281.25,-144.76,0,0,0,0,0
1553855747296.88,-145.2,0,0,0,0,0
1553855747312.5,-137.38,0,0,0,0,0
1553855747328.12,-121.49,0,0,0,0,0
1553855747343.75,-99.6,0,0,0,0,0
1553855747359.38,-75.13,0,0,0,0,0
1553855747375,-51.92,0,0,0,0,0
1553855747390.62,-33.14,0,0,0,0,0
1553855747406.25,-20.58,0,0,0,0,0
1553855747421.88,-14.65,0,0,0,0,0
1553855747437.5,-14.57,0,0,0,0,0
1553855747453.12,-18.93,0,0,0,0,0
1553855747468.75,-25.9,0,0,0,0,0
1553855747484.38,-33.45,0,0,0,0,0
1553855747500,-39.42,0,0,0,0,0
1553855747515.62,-42,0,0,0,0,0
1553855747531.25,-39.99,0,0,0,0,0
1553855747546.88,-33.31,0,0,0,0,0
1553855747562.5,-22.85,0,0,0,0,0
1553855747578.12,-10.32,0,0,0,0,0
1553855747593.75,2.38,0,0,0,0,0
1553855747609.38,13.62,0,0,0,0,0
1553855747625,22.39,0,0,0,0,0
1553855747640.62,28.37,0,0,0,0,0
1553855747656.25,31.73,0,0,0,0,0
1553855747671.88,32.98,0,0,0,0,0
1553855747687.5,32.72,0,0,0,0,0
1553855747703.12,31.54,0,0,0,0,0
1553855747718.75,29.95,0,0,0,0,0
1553855747734.38,28.38,0,0,0,0,0
1553855747750,27.1,0,0,0,0,0
1553855747765.62,26.23,0,0,0,0,0
1553855747781.25,25.65,0,0,0,0,0
1553855747796.88,25.01,0,0,0,0,0
1553855747812.5,23.78,0,0,0,0,0
1553855747828.12,21.43,0,0,0,0,0
1553855747843.75,17.48,0,0,0,0,0
1553855747859.38,11.69,0,0,0,0,0
1553855747875,4.13,0,0,0,0,0
1553855747890.62,-4.76,0,0,0,0,0
1553855747906.25,-14.13,0,0,0,0,0
1553855747921.88,-22.77,0,0,0,0,0
1553855747937.5,-29.23,0,0,0,0,0
1553855747953.12,-32.17,0,0,0,0,0
1553855747968.75,-30.75,0,0,0,0,0
1553855747984.38,-24.92,0,0,0,0,0
1553855748000,-15.53,0,0,0,0,0
1553855748015.62,-4.11,0,0,0,0,0
1553855748031.25,7.65,0,0,0,0,0
1553855748046.88,18.32,0,0,0,0,0
1553855748062.5,27.18,0,0,0,0,0
1553855748078.12,34.15,0,0,0,0,0
1553855748093.75,39.58,0,0,0,0,0
1553855748109.38,43.9,0,0,0,0,0
1553855748125,47.35,0,0,0,0,0
1553855748140.62,49.89,0,0,0,0,0
1553855748156.25,51.33,0,0,0,0,0
1553855748171.88,51.55,0,0,0,0,0
1553855748187.5,50.65,0,0,0,0,0
1553855748203.12,49.08,0,0,0,0,0
1553855748218.75,47.4,0,0,0,0,0
1553855748234.38,46.09,0,0,0,0,0
1553855748250,45.31,0,0,0,0,0
1553855748265.62,44.84,0,0,0,0,0
1553855748281.25,44.1,0,0,0,0,0
1553855748296.88,42.56,0,0,0,0,0
1553855748312.5,39.93,0,0,0,0,0
1553855748328.12,36.21,0,0,0,0,0
1553855748343.75,31.6,0,0,0,0,0
1553855748359.38,26.45,0,0,0,0,0
1553855748375,21.18,0,0,0,0,0
1553855748390.62,16.52,0,0,0,0,0
1553855748406.25,13.51,0,0,0,0,0
1553855748421.88,13.32,0,0,0,0,0
1553855748437.5,16.72,0,0,0,0,0
1553855748453.12,23.7,0,0,0,0,0
1553855748468.75,33.11,0,0,0,0,0
1553855748484.38,42.89,0,0,0,0,0
1553855748500,50.51,0,0,0,0,0
1553855748515.62,53.72,0,0,0,0,0
1553855748531.25,51.15,0,0,0,0,0
1553855748546.88,42.62,0,0,0,0,0
1553855748562.5,29.34,0,0,0,0,0
1553855748578.12,13.71,0,0,0,0,0
1553855748593.75,-1.18,0,0,0,0,0
1553855748609.38,-12.32,0,0,0,0,0
1553855748625,-17.52,0,0,0,0,0
1553855748640.62,-16.14,0,0,0,0,0
1553855748656.25,-9.17,0,0,0,0,0
1553855748671.88,1.16,0,0,0,0,0
1553855748687.5,12.12,0,0,0,0,0
1553855748703.12,21.41,0,0,0,0,0
1553855748718.75,27.69,0,0,0,0,0
1553855748734.38,30.63,0,0,0,0,0
1553855748750,30.65,0,0,0,0,0
1553855748765.62,28.69,0,0,0,0,0
1553855748781.25,25.77,0,0,0,0,0
1553855748796.88,22.8,0,0,0,0,0
1553855748812.5,20.34,0,0,0,0,0
1553855748828.12,18.47,0,0,0,0,0
1553855748843.75,16.56,0,0,0,0,0
1553855748859.38,13.47,0,0,0,0,0
1553855748875,7.81,0,0,0,0,0
1553855748890.62,-1.42,0,0,0,0,0
1553855748906.25,-14.32,0,0,0,0,0
1553855748921.88,-29.87,0,0,0,0,0
1553855748937.5,-46.3,0,0,0,0,0
1553855748953.12,-61.66,0,0,0,0,0
1553855748968.75,-74.53,0,0,0,0,0
1553855748984.38,-84.37,0,0,0,0,0
1553855749000,-91.4,0,0,0,0,0
1553855749015.62,-96.18,0,0,0,0,0
1553855749031.25,-99.08,0,0,0,0,0
1553855749046.88,-100.19,0,0,0,0,0
1553855749062.5,-99.39,0,0,0,0,0
1553855749078.12,-96.61,0,0,0,0,0
1553855749093.75,-92,0,0,0,0,0
1553855749109.38,-85.82,0,0,0,0,0
1553855749125,-78.26,0,0,0,0,0
1553855749140.62,-69.43,0,0,0,0,0
1553855749156.25,-59.43,0,0,0,0,0
1553855749171.88,-48.45,0,0,0,0,0
1553855749187.5,-36.89,0,0,0,0,0
1553855749203.12,-25.2,0,0,0,0,0
1553855749218.75,-13.61,0,0,0,0,0
1553855749234.38,-2.18,0,0,0,0,0
1553855749250,9.16,0,0,0,0,0
1553855749265.62,20.29,0,0,0,0,0
1553855749281.25,30.75,0,0,0,0,0
1553855749296.88,39.85,0,0,0,0,0
1553855749312.5,46.88,0,0,0,0,0
1553855749328.12,51.45,0,0,0,0,0
1553855749343.75,53.57,0,0,0,0,0
1553855749359.38,53.62,0,0,0,0,0
1553855749375,52.12,0,0,0,0,0
1553855749390.62,49.59,0,0,0,0,0
1553855749406.25,46.41,0,0,0,0,0
1553855749421.88,42.73,0,0,0,0,0
1553855749437.5,38.32,0,0,0,0,0
1553855749453.12,32.49,0,0,0,0,0
1553855749468.75,24.21,0,0,0,0,0
1553855749484.38,12.44,0,0,0,0,0
1553855749500,-3.05,0,0,0,0,0
1553855749515.62,-21.06,0,0,0,0,0
1553855749531.25,-38.76,0,0,0,0,0
1553855749546.88,-52.41,0,0,0,0,0
1553855749562.5,-58.85,0,0,0,0,0
1553855749578.12,-56.79,0,0,0,0,0
1553855749593.75,-47.59,0,0,0,0,0
1553855749609.38,-34.72,0,0,0,0,0
1553855749625,-22.39,0,0,0,0,0
1553855749640.62,-13.82,0,0,0,0,0
1553855749656.25,-10.25,0,0,0,0,0
1553855749671.88,-10.72,0,0,0,0,0
1553855749687.5,-12.9,0,0,0,0,0
1553855749703.12,-14.18,0,0,0,0,0
1553855749718.75,-12.64,0,0,0,0,0
1553855749734.38,-7.61,0,0,0,0,0
1553855749750,0.4,0,0,0,0,0
1553855749765.62,10.07,0,0,0,0,0
1553855749781.25,19.91,0,0,0,0,0
1553855749796.88,28.71,0,0,0,0,0
1553855749812.5,35.76,0,0,0,0,0
1553855749828.12,40.87,0,0,0,0,0
1553855749843.75,44.13,0,0,0,0,0
1553855749859.38,45.6,0,0,0,0,0
1553855749875,45.16,0,0,0,0,0
1553855749890.62,42.87,0,0,0,0,0
1553855749906.25,39.31,0,0,0,0,0
1553855749921.88,35.67,0,0,0,0,0
1553855749937.5,33.41,0,0,0,0,0
1553855749953.12,33.57,0,0,0,0,0
1553855749968.75,36.25,0,0,0,0,0
1553855749984.38,40.7,0,0,0,0,0
1553855750000,46,0,0,0,0,0
1553855750015.62,51.76,0,0,0,0,0
1553855750031.25,58.44,0,0,0,0,0
1553855750046.88,66.79,0,0,0,0,0
1553855750062.5,76.71,0,0,0,0,0
1553855750078.12,86.44,0,0,0,0,0
1553855750093.75,92.83,0,0,0,0,0
1553855750109.38,92.5,0,0,0,0,0
1553855750125,83.67,0,0,0,0,0
1553855750140.62,67.31,0,0,0,0,0
1553855750156.25,46.97,0,0,0,0,0
1553855750171.88,27.38,0,0,0,0,0
1553855750187.5,12.36,0,0,0,0,0
1553855750203.12,3.43,0,0,0,0,0
1553855750218.75,-0.33,0,0,0,0,0
1553855750234.38,-1.36,0,0,0,0,0
1553855750250,-2.11,0,0,0,0,0
1553855750265.62,-3.92,0,0,0,0,0
1553855750281.25,-6.62,0,0,0,0,0
1553855750296.88,-9.11,0,0,0,0,0
1553855750312.5,-10.24,0,0,0,0,0
1553855750328.12,-9.55,0,0,0,0,0
1553855750343.75,-7.35,0,0,0,0,0
1553855750359.38,-4.39,0,0,0,0,0
1553855750375,-1.29,0,0,0,0,0
1553855750390.62,1.89,0,0,0,0,0
1553855750406.25,5.56,0,0,0,0,0
1553855750421.88,10.35,0,0,0,0,0
1553855750437.5,16.58,0,0,0,0,0
1553855750453.12,24.03,0,0,0,0,0
1553855750468.75,32.01,0,0,0,0,0
1553855750484.38,39.66,0,0,0,0,0
1553855750500,46.33,0,0,0,0,0
1553855750515.62,51.61,0,0,0,0,0
1553855750531.25,55.2,0,0,0,0,0
1553855750546.88,56.59,0,0,0,0,0
1553855750562.5,54.96,0,0,0,0,0
1553855750578.12,49.28,0,0,0,0,0
1553855750593.75,38.74,0,0,0,0,0
1553855750609.38,23.23,0,0,0,0,0
1553855750625,3.56,0,0,0,0,0
1553855750640.62,-18.46,0,0,0,0,0
1553855750656.25,-40.52,0,0,0,0,0
1553855750671.88,-60.23,0,0,0,0,0
1553855750687.5,-75.81,0,0,0,0,0
1553855750703.12,-86.35,0,0,0,0,0
1553855750718.75,-91.98,0,0,0,0,0
1553855750734.38,-93.66,0,0,0,0,0
1553855750750,-92.83,0,0,0,0,0
1553855750765.62,-90.97,0,0,0,0,0
1553855750781.25,-89.29,0,0,0,0,0
1553855750796.88,-88.54,0,0,0,0,0
1553855750812.5,-89.03,0,0,0,0,0
1553855750828.12,-90.62,0,0,0,0,0
1553855750843.75,-92.79,0,0,0,0,0
1553855750859.38,-94.65,0,0,0,0,0
1553855750875,-95.12,0,0,0,0,0
1553855750890.62,-93.11,0,0,0,0,0
1553855750906.25,-87.93,0,0,0,0,0
1553855750921.88,-79.44,0,0,0,0,0
1553855750937.5,-68.18,0,0,0,0,0
1553855750953.12,-55.09,0,0,0,0,0
1553855750968.75,-41.26,0,0,0,0,0
1553855750984.38,-27.59,0,0,0,0,0
1553855751000,-14.63,0,0,0,0,0
1553855751015.62,-2.57,0,0,0,0,0
1553855751031.25,8.66,0,0,0,0,0
1553855751046.88,19.05,0,0,0,0,0
1553855751062.5,28.49,0,0,0,0,0
1553855751078.12,36.6,0,0,0,0,0
1553855751093.75,42.92,0,0,0,0,0
1553855751109.38,47.12,0,0,0,0,0
1553855751125,49.16,0,0,0,0,0
1553855751140.62,49.52,0,0,0,0,0
1553855751156.25,48.98,0,0,0,0,0
1553855751171.88,48.37,0,0,0,0,0
1553855751187.5,48.18,0,0,0,0,0
1553855751203.12,48.37,0,0,0,0,0
1553855751218.75,48.43,0,0,0,0,0
1553855751234.38,47.66,0,0,0,0,0
1553855751250,45.53,0,0,0,0,0
1553855751265.62,41.97,0,0,0,0,0
1553855751281.25,37.41,0,0,0,0,0
1553855751296.88,32.64,0,0,0,0,0
1553855751312.5,28.49,0,0,0,0,0
1553855751328.12,25.58,0,0,0,0,0
1553855751343.75,24.04,0,0,0,0,0
1553855751359.38,23.45,0,0,0,0,0
1553855751375,22.95,0,0,0,0,0
1553855751390.62,21.56,0,0,0,0,0
1553855751406.25,18.61,0,0,0,0,0
1553855751421.88,14.07,0,0,0,0,0
1553855751437.5,8.66,0,0,0,0,0
1553855751453.12,3.65,0,0,0,0,0
1553855751468.75,0.33,0,0,0,0,0
1553855751484.38,-0.44,0,0,0,0,0
1553855751500,1.42,0,0,0,0,0
1553855751515.62,5.35,0,0,0,0,0
1553855751531.25,10.45,0,0,0,0,0
1553855751546.88,15.86,0,0,0,0,0
1553855751562.5,20.98,0,0,0,0,0
1553855751578.12,25.54,0,0,0,0,0
1553855751593.75,29.42,0,0,0,0,0
1553855751609.38,32.62,0,0,0,0,0
1553855751625,35.12,0,0,0,0,0
1553855751640.62,36.89,0,0,0,0,0
1553855751656.25,37.96,0,0,0,0,0
1553855751671.88,38.35,0,0,0,0,0
1553855751687.5,38.11,0,0,0,0,0
1553855751703.12,37.28,0,0,0,0,0
1553855751718.75,36,0,0,0,0,0
1553855751734.38,34.51,0,0,0,0,0
1553855751750,33.11,0,0,0,0,0
1553855751765.62,32.09,0,0,0,0,0
1553855751781.25,31.52,0,0,0,0,0
1553855751796.88,31.23,0,0,0,0,0
1553855751812.5,30.76,0,0,0,0,0
1553855751828.12,29.54,0,0,0,0,0
1553855751843.75,27.19,0,0,0,0,0
1553855751859.38,23.71,0,0,0,0,0
1553855751875,19.62,0,0,0,0,0
1553855751890.62,15.82,0,0,0,0,0
1553855751906.25,13.26,0,0,0,0,0
1553855751921.88,12.52,0,0,0,0,0
1553855751937.5,13.47,0,0,0,0,0
1553855751953.12,15.31,0,0,0,0,0
1553855751968.75,16.89,0,0,0,0,0
1553855751984.38,17.19,0,0,0,0,0
1553855752000,15.64,0,0,0,0,0
1553855752015.62,12.27,0,0,0,0,0
1553855752031.25,7.52,0,0,0,0,0
1553855752046.88,2.02,0,0,0,0,0
1553855752062.5,-3.6,0,0,0,0,0
1553855752078.12,-8.69,0,0,0,0,0
1553855752093.75,-12.61,0,0,0,0,0
1553855752109.38,-14.68,0,0,0,0,0
1553855752125,-14.39,0,0,0,0,0
1553855752140.62,-11.69,0,0,0,0,0
1553855752156.25,-7.09,0,0,0,0,0
1553855752171.88,-1.64,0,0,0,0,0
1553855752187.5,3.44,0,0,0,0,0
1553855752203.12,7.19,0,0,0,0,0
1553855752218.75,9.19,0,0,0,0,0
1553855752234.38,9.73,0,0,0,0,0
1553855752250,9.55,0,0,0,0,0
1553855752265.62,9.51,0,0,0,0,0
1553855752281.25,10.21,0,0,0,0,0
1553855752296.88,11.74,0,0,0,0,0
1553855752312.5,13.82,0,0,0,0,0
1553855752328.12,15.97,0,0,0,0,0
1553855752343.75,17.9,0,0,0,0,0
1553855752359.38,19.6,0,0,0,0,0
1553855752375,21.41,0,0,0,0,0
1553855752390.62,23.57,0,0,0,0,0
1553855752406.25,26.1,0,0,0,0,0
1553855752421.88,28.69,0,0,0,0,0
1553855752437.5,30.8,0,0,0,0,0
1553855752453.12,31.95,0,0,0,0,0
1553855752468.75,31.96,0,0,0,0,0
1553855752484.38,30.97,0,0,0,0,0
1553855752500,29.38,0,0,0,0,0
1553855752515.62,27.54,0,0,0,0,0
1553855752531.25,25.7,0,0,0,0,0
1553855752546.88,23.94,0,0,0,0,0
1553855752562.5,22.25,0,0,0,0,0
1553855752578.12,20.63,0,0,0,0,0
1553855752593.75,19.11,0,0,0,0,0
1553855752609.38,17.64,0,0,0,0,0
1553855752625,16.08,0,0,0,0,0
1553855752640.62,14.17,0,0,0,0,0
1553855752656.25,11.63,0,0,0,0,0
1553855752671.88,8.37,0,0,0,0,0
1553855752687.5,4.65,0,0,0,0,0
1553855752703.12,1.14,0,0,0,0,0
1553855752718.75,-1.17,0,0,0,0,0
1553855752734.38,-1.31,0,0,0,0,0
1553855752750,1.38,0,0,0,0,0
1553855752765.62,6.95,0,0,0,0,0
1553855752781.25,14.79,0,0,0,0,0
1553855752796.88,23.8,0,0,0,0,0
1553855752812.5,32.81,0,0,0,0,0
1553855752828.12,41.02,0,0,0,0,0
1553855752843.75,48.18,0,0,0,0,0
1553855752859.38,54.59,0,0,0,0,0
1553855752875,60.84,0,0,0,0,0
1553855752890.62,67.37,0,0,0,0,0
1553855752906.25,74.26,0,0,0,0,0
1553855752921.88,81.12,0,0,0,0,0
1553855752937.5,87.39,0,0,0,0,0
1553855752953.12,92.62,0,0,0,0,0
1553855752968.75,96.59,0,0,0,0,0
1553855752984.38,99.39,0,0,0,0,0
1553855753000,101.23,0,0,0,0,0
1553855753015.62,102.24,0,0,0,0,0
1553855753031.25,102.48,0,0,0,0,0
1553855753046.88,101.97,0,0,0,0,0
1553855753062.5,100.88,0,0,0,0,0
1553855753078.12,99.4,0,0,0,0,0
1553855753093.75,97.7,0,0,0,0,0
1553855753109.38,95.74,0,0,0,0,0
1553855753125,93.22,0,0,0,0,0
1553855753140.62,89.67,0,0,0,0,0
1553855753156.25,84.62,0,0,0,0,0
1553855753171.88,77.79,0,0,0,0,0
1553855753187.5,69.17,0,0,0,0,0
1553855753203.12,58.97,0,0,0,0,0
1553855753218.75,47.69,0,0,0,0,0
1553855753234.38,35.95,0,0,0,0,0
