Timestamp,BVP,Note,AGG,ED,SIB,Condition
1565103656000,0,0,0,0,0,0
1565103656015.63,0,0,0,0,0,0
1565103656031.25,0,0,0,0,0,0
1565103656046.88,0,0,0,0,0,0
1565103656062.5,0,0,0,0,0,0
1565103656078.13,0,0,0,0,0,0
1565103656093.75,0,0,0,0,0,0
1565103656109.38,0,0,0,0,0,0
1565103656125,0,0,0,0,0,0
1565103656140.63,0,0,0,0,0,0
1565103656156.25,0,0,0,0,0,0
1565103656171.88,0,0,0,0,0,0
1565103656187.5,0,0,0,0,0,0
1565103656203.13,0,0,0,0,0,0
1565103656218.75,0,0,0,0,0,0
1565103656234.38,0,0,0,0,0,0
1565103656250,0,0,0,0,0,0
1565103656265.63,0,0,0,0,0,0
1565103656281.25,0,0,0,0,0,0
1565103656296.88,0,0,0,0,0,0
1565103656312.5,0,0,0,0,0,0
1565103656328.13,0,0,0,0,0,0
1565103656343.75,0,0,0,0,0,0
1565103656359.38,0,0,0,0,0,0
1565103656375,0,0,0,0,0,0
1565103656390.63,0,0,0,0,0,0
1565103656406.25,0,0,0,0,0,0
1565103656421.88,0,0,0,0,0,0
1565103656437.5,0,1,0,0,0,0
1565103656453.13,0,1,0,0,0,0
1565103656468.75,0,1,0,0,0,0
1565103656484.38,0,1,0,0,0,0
1565103656500,0,1,0,0,0,0
1565103656515.63,0,1,0,0,0,0
1565103656531.25,0,1,0,0,0,0
1565103656546.88,0,1,0,0,0,0
1565103656562.5,0,1,0,0,0,0
1565103656578.13,0,1,0,0,0,0
1565103656593.75,0,1,0,0,0,0
1565103656609.38,0,1,0,0,0,0
1565103656625,0,1,0,0,0,0
1565103656640.63,0,1,0,0,0,0
1565103656656.25,0,1,0,0,0,0
1565103656671.88,0,1,0,0,0,0
1565103656687.5,0,1,0,0,0,0
1565103656703.13,0,1,0,0,0,0
1565103656718.75,0,1,0,0,0,0
1565103656734.38,0,1,0,0,0,0
1565103656750,0,1,0,0,0,0
1565103656765.63,0,1,0,0,0,0
1565103656781.25,0,1,0,0,0,0
1565103656796.88,0,1,0,0,0,0
1565103656812.5,0,1,0,0,0,0
1565103656828.13,0,1,0,0,0,0
1565103656843.75,0,1,0,0,0,0
1565103656859.38,0,1,0,0,0,0
1565103656875,0,1,0,0,0,0
1565103656890.63,0,1,0,0,0,0
1565103656906.25,0,1,0,0,0,0
1565103656921.88,0,1,0,0,0,0
1565103656937.5,0,1,0,0,0,0
1565103656953.13,0,1,0,0,0,0
1565103656968.75,0,0,0,0,0,0
1565103656984.38,0,0,0,0,0,0
1565103657000,-0,0,0,0,0,0
1565103657015.63,-0,0,0,0,0,0
1565103657031.25,-0,0,0,0,0,0
1565103657046.88,-0,0,0,0,0,0
1565103657062.5,-0,0,0,0,0,0
1565103657078.13,-0,0,0,0,0,0
1565103657093.75,-0,0,0,0,0,0
1565103657109.38,-0,0,0,0,0,0
1565103657125,-0,0,0,0,0,0
1565103657140.63,-0,0,0,0,0,0
1565103657156.25,0,0,0,0,0,0
1565103657171.88,0.01,0,0,0,0,0
1565103657187.5,0.01,0,0,0,0,0
1565103657203.13,-0,0,0,0,0,0
1565103657218.75,-0.03,0,0,0,0,0
1565103657234.38,-0.05,0,0,0,0,0
1565103657250,-0.05,0,0,0,0,0
1565103657265.63,0,0,0,0,0,0
1565103657281.25,0.13,0,0,0,0,0
1565103657296.88,0.36,0,0,0,0,0
1565103657312.5,0.66,0,0,0,0,0
1565103657328.13,1.01,0,0,0,0,0
1565103657343.75,1.37,0,0,0,0,0
1565103657359.38,1.72,0,0,0,0,0
1565103657375,2.06,0,0,0,0,0
1565103657390.63,2.4,0,0,0,0,0
1565103657406.25,2.79,0,0,0,0,0
1565103657421.88,3.24,0,0,0,0,0
1565103657437.5,3.8,0,0,0,0,0
1565103657453.13,4.42,0,0,0,0,0
1565103657468.75,5.06,0,0,0,0,0
1565103657484.38,5.66,0,0,0,0,0
1565103657500,6.2,0,0,0,0,0
1565103657515.63,6.68,0,0,0,0,0
1565103657531.25,7.15,0,0,0,0,0
1565103657546.88,7.68,0,0,0,0,0
1565103657562.5,8.31,0,0,0,0,0
1565103657578.13,9.14,0,0,0,0,0
1565103657593.75,10.09,0,0,0,0,0
1565103657609.38,11.04,0,0,0,0,0
1565103657625,11.88,0,0,0,0,0
1565103657640.63,12.56,0,0,0,0,0
1565103657656.25,13.14,0,0,0,0,0
1565103657671.88,13.76,0,0,0,0,0
1565103657687.5,14.65,0,0,0,0,0
1565103657703.13,15.96,0,0,0,0,0
1565103657718.75,17.91,0,0,0,0,0
1565103657734.38,20.32,0,0,0,0,0
1565103657750,22.9,0,0,0,0,0
1565103657765.63,25.38,0,0,0,0,0
1565103657781.25,27.58,0,0,0,0,0
1565103657796.88,29.57,0,0,0,0,0
1565103657812.5,31.68,0,0,0,0,0
1565103657828.13,34.32,0,0,0,0,0
1565103657843.75,37.81,0,0,0,0,0
1565103657859.38,42.54,0,0,0,0,0
1565103657875,48.15,0,0,0,0,0
1565103657890.63,54.1,0,0,0,0,0
1565103657906.25,59.83,0,0,0,0,0
1565103657921.88,64.97,0,0,0,0,0
1565103657937.5,69.58,0,0,0,0,0
1565103657953.13,74.14,0,0,0,0,0
1565103657968.75,79.34,0,0,0,0,0
1565103657984.38,85.71,0,0,0,0,0
1565103658000,93.76,0,0,0,0,0
1565103658015.63,103,0,0,0,0,0
1565103658031.25,112.62,0,0,0,0,0
1565103658046.88,121.73,0,0,0,0,0
1565103658062.5,129.77,0,0,0,0,0
1565103658078.13,136.75,0,0,0,0,0
1565103658093.75,143.3,0,0,0,0,0
1565103658109.38,150.75,0,0,0,0,0
1565103658125,157.77,0,0,0,0,0
1565103658140.63,166.64,0,0,0,0,0
1565103658156.25,177.95,0,0,0,0,0
1565103658171.88,191.79,0,0,0,0,0
1565103658187.5,206.97,0,0,0,0,0
1565103658203.13,220.57,0,0,0,0,0
1565103658218.75,228.25,0,0,0,0,0
1565103658234.38,225.36,0,0,0,0,0
1565103658250,208.53,0,0,0,0,0
1565103658265.63,176.87,0,0,0,0,0
1565103658281.25,132.76,0,0,0,0,0
1565103658296.88,80.05,0,0,0,0,0
1565103658312.5,23.07,0,0,0,0,0
1565103658328.13,-34.94,0,0,0,0,0
1565103658343.75,-92.44,0,0,0,0,0
1565103658359.38,-149.16,0,0,0,0,0
1565103658375,-205.23,0,0,0,0,0
1565103658390.63,-260.37,0,0,0,0,0
1565103658406.25,-313.74,0,0,0,0,0
1565103658421.88,-363.87,0,0,0,0,0
1565103658437.5,-409.83,0,0,0,0,0
1565103658453.13,-450.91,0,0,0,0,0
1565103658468.75,-486.5,0,0,0,0,0
1565103658484.38,-515.74,0,0,0,0,0
1565103658500,-537.23,0,0,0,0,0
1565103658515.63,-549.22,0,0,0,0,0
1565103658531.25,-549.96,0,0,0,0,0
1565103658546.88,-538.37,0,0,0,0,0
1565103658562.5,-514.21,0,0,0,0,0
1565103658578.13,-478.68,0,0,0,0,0
1565103658593.75,-433.88,0,0,0,0,0
1565103658609.38,-382.45,0,0,0,0,0
1565103658625,-327.01,0,0,0,0,0
1565103658640.63,-269.81,0,0,0,0,0
1565103658656.25,-212.58,0,0,0,0,0
1565103658671.88,-156.58,0,0,0,0,0
1565103658687.5,-102.83,0,0,0,0,0
1565103658703.13,-52.2,0,0,0,0,0
1565103658718.75,-5.68,0,0,0,0,0
1565103658734.38,35.87,0,0,0,0,0
1565103658750,71.77,0,0,0,0,0
1565103658765.63,101.77,0,0,0,0,0
1565103658781.25,125.98,0,0,0,0,0
1565103658796.88,144.91,0,0,0,0,0
1565103658812.5,159.28,0,0,0,0,0
1565103658828.13,169.78,0,0,0,0,0
1565103658843.75,177.04,0,0,0,0,0
1565103658859.38,181.44,0,0,0,0,0
1565103658875,183.29,0,0,0,0,0
1565103658890.63,182.8,0,0,0,0,0
1565103658906.25,180.26,0,0,0,0,0
1565103658921.88,176.01,0,0,0,0,0
1565103658937.5,170.47,0,0,0,0,0
1565103658953.13,164.04,0,0,0,0,0
1565103658968.75,157.07,0,0,0,0,0
1565103658984.38,149.81,0,0,0,0,0
1565103659000,142.4,0,0,0,0,0
1565103659015.63,134.92,0,0,0,0,0
1565103659031.25,127.4,0,0,0,0,0
1565103659046.88,119.88,0,0,0,0,0
1565103659062.5,112.44,0,0,0,0,0
1565103659078.13,105.15,0,0,0,0,0
1565103659093.75,98.06,0,0,0,0,0
1565103659109.38,91.25,0,0,0,0,0
1565103659125,84.72,0,0,0,0,0
1565103659140.63,78.5,0,0,0,0,0
1565103659156.25,72.6,0,0,0,0,0
1565103659171.88,67.01,0,0,0,0,0
1565103659187.5,61.74,0,0,0,0,0
1565103659203.13,56.8,0,0,0,0,0
1565103659218.75,52.2,0,0,0,0,0
1565103659234.38,47.94,0,0,0,0,0
1565103659250,44.01,0,0,0,0,0
1565103659265.63,40.41,0,0,0,0,0
1565103659281.25,37.13,0,0,0,0,0
1565103659296.88,34.15,0,0,0,0,0
1565103659312.5,31.49,0,0,0,0,0
1565103659328.13,29.13,0,0,0,0,0
1565103659343.75,27.07,0,0,0,0,0
1565103659359.38,25.33,0,0,0,0,0
1565103659375,23.91,0,0,0,0,0
1565103659390.63,22.78,0,0,0,0,0
1565103659406.25,21.92,0,0,0,0,0
1565103659421.88,21.33,0,0,0,0,0
1565103659437.5,20.97,0,0,0,0,0
1565103659453.13,20.86,0,0,0,0,0
1565103659468.75,20.97,0,0,0,0,0
1565103659484.38,21.31,0,0,0,0,0
1565103659500,21.86,0,0,0,0,0
1565103659515.63,22.6,0,0,0,0,0
1565103659531.25,23.44,0,0,0,0,0
1565103659546.88,24.22,0,0,0,0,0
1565103659562.5,24.76,0,0,0,0,0
1565103659578.13,24.8,0,0,0,0,0
1565103659593.75,24.06,0,0,0,0,0
1565103659609.38,22.23,0,0,0,0,0
1565103659625,19.13,0,0,0,0,0
1565103659640.63,14.62,0,0,0,0,0
1565103659656.25,8.67,0,0,0,0,0
1565103659671.88,1.34,0,0,0,0,0
1565103659687.5,-7.1,0,0,0,0,0
1565103659703.13,-16.21,0,0,0,0,0
1565103659718.75,-25.42,0,0,0,0,0
1565103659734.38,-34.06,0,0,0,0,0
1565103659750,-41.44,0,0,0,0,0
1565103659765.63,-46.84,0,0,0,0,0
1565103659781.25,-49.65,0,0,0,0,0
1565103659796.88,-49.51,0,0,0,0,0
1565103659812.5,-46.28,0,0,0,0,0
1565103659828.13,-40.12,0,0,0,0,0
1565103659843.75,-31.47,0,0,0,0,0
1565103659859.38,-21.04,0,0,0,0,0
1565103659875,-9.33,0,0,0,0,0
1565103659890.63,2.52,0,0,0,0,0
1565103659906.25,13.56,0,0,0,0,0
1565103659921.88,23.06,0,0,0,0,0
1565103659937.5,30.45,0,0,0,0,0
1565103659953.13,35.44,0,0,0,0,0
1565103659968.75,37.91,0,0,0,0,0
1565103659984.38,37.88,0,0,0,0,0
1565103660000,35.48,0,0,0,0,0
1565103660015.63,30.75,0,0,0,0,0
1565103660031.25,23.99,0,0,0,0,0
1565103660046.88,15.57,0,0,0,0,0
1565103660062.5,5.9,0,0,0,0,0
1565103660078.13,-4.63,0,0,0,0,0
1565103660093.75,-15.46,0,0,0,0,0
1565103660109.38,-26.03,0,0,0,0,0
1565103660125,-35.73,0,0,0,0,0
1565103660140.63,-43.84,0,0,0,0,0
1565103660156.25,-49.7,0,0,0,0,0
1565103660171.88,-52.59,0,0,0,0,0
1565103660187.5,-51.9,0,0,0,0,0
1565103660203.13,-47.3,0,0,0,0,0
1565103660218.75,-39,0,0,0,0,0
1565103660234.38,-27.33,0,0,0,0,0
1565103660250,-13.13,0,0,0,0,0
1565103660265.63,2.4,0,0,0,0,0
1565103660281.25,18.44,0,0,0,0,0
1565103660296.88,33.34,0,0,0,0,0
1565103660312.5,45.93,0,0,0,0,0
1565103660328.13,55.54,0,0,0,0,0
1565103660343.75,61.93,0,0,0,0,0
1565103660359.38,65.07,0,0,0,0,0
1565103660375,65.4,0,0,0,0,0
1565103660390.63,63.35,0,0,0,0,0
1565103660406.25,59.19,0,0,0,0,0
1565103660421.88,53.14,0,0,0,0,0
1565103660437.5,45.39,0,0,0,0,0
1565103660453.13,36.23,0,0,0,0,0
1565103660468.75,25.96,0,0,0,0,0
1565103660484.38,14.79,0,0,0,0,0
1565103660500,2.64,0,0,0,0,0
1565103660515.63,-10.15,0,0,0,0,0
1565103660531.25,-23.6,0,0,0,0,0
1565103660546.88,-37.99,0,0,0,0,0
1565103660562.5,-53.26,0,0,0,0,0
1565103660578.13,-69.1,0,0,0,0,0
1565103660593.75,-84.73,0,0,0,0,0
1565103660609.38,-99,0,0,0,0,0
1565103660625,-109.32,0,0,0,0,0
1565103660640.63,-116.61,0,0,0,0,0
1565103660656.25,-119.97,0,0,0,0,0
1565103660671.88,-119.02,0,0,0,0,0
1565103660687.5,-114.12,0,0,0,0,0
1565103660703.13,-105.72,0,0,0,0,0
1565103660718.75,-94.23,0,0,0,0,0
1565103660734.38,-79.93,0,0,0,0,0
1565103660750,-62.99,0,0,0,0,0
1565103660765.63,-43.85,0,0,0,0,0
1565103660781.25,-23.43,0,0,0,0,0
1565103660796.88,-2.76,0,0,0,0,0
1565103660812.5,17.34,0,0,0,0,0
1565103660828.13,34.57,0,0,0,0,0
1565103660843.75,47.13,0,0,0,0,0
1565103660859.38,54.13,0,0,0,0,0
1565103660875,55.22,0,0,0,0,0
1565103660890.63,50.28,0,0,0,0,0
1565103660906.25,38.67,0,0,0,0,0
1565103660921.88,20.13,0,0,0,0,0
1565103660937.5,-3.57,0,0,0,0,0
1565103660953.13,-28.82,0,0,0,0,0
1565103660968.75,-51.19,0,0,0,0,0
1565103660984.38,-67.48,0,0,0,0,0
1565103661000,-77.28,0,0,0,0,0
1565103661015.63,-83.39,0,0,0,0,0
1565103661031.25,-88.45,0,0,0,0,0
1565103661046.88,-95.15,0,0,0,0,0
1565103661062.5,-102.92,0,0,0,0,0
1565103661078.13,-107.55,0,0,0,0,0
1565103661093.75,-104.22,0,0,0,0,0
1565103661109.38,-90.84,0,0,0,0,0
1565103661125,-69.65,0,0,0,0,0
1565103661140.63,-45.48,0,0,0,0,0
1565103661156.25,-23.2,0,0,0,0,0
1565103661171.88,-5.48,0,0,0,0,0
1565103661187.5,9.34,0,0,0,0,0
1565103661203.13,24.55,0,0,0,0,0
1565103661218.75,43.28,0,0,0,0,0
1565103661234.38,66.85,0,0,0,0,0
1565103661250,94.76,0,0,0,0,0
1565103661265.63,125.54,0,0,0,0,0
1565103661281.25,158.73,0,0,0,0,0
1565103661296.88,194.03,0,0,0,0,0
1565103661312.5,227.83,0,0,0,0,0
1565103661328.13,255.95,0,0,0,0,0
1565103661343.75,272.17,0,0,0,0,0
1565103661359.38,269.58,0,0,0,0,0
1565103661375,243.88,0,0,0,0,0
1565103661390.63,198.62,0,0,0,0,0
1565103661406.25,139.17,0,0,0,0,0
1565103661421.88,74.71,0,0,0,0,0
1565103661437.5,15.01,0,0,0,0,0
1565103661453.13,-33.29,0,0,0,0,0
1565103661468.75,-68.29,0,0,0,0,0
1565103661484.38,-93.27,0,0,0,0,0
1565103661500,-114.27,0,0,0,0,0
1565103661515.63,-136.77,0,0,0,0,0
1565103661531.25,-163.15,0,0,0,0,0
1565103661546.88,-191.77,0,0,0,0,0
1565103661562.5,-216.63,0,0,0,0,0
1565103661578.13,-229.95,0,0,0,0,0
1565103661593.75,-225.16,0,0,0,0,0
1565103661609.38,-198.98,0,0,0,0,0
1565103661625,-153.28,0,0,0,0,0
1565103661640.63,-94.41,0,0,0,0,0
1565103661656.25,-30.66,0,0,0,0,0
1565103661671.88,30.67,0,0,0,0,0
1565103661687.5,85.16,0,0,0,0,0
1565103661703.13,132.54,0,0,0,0,0
1565103661718.75,175.33,0,0,0,0,0
1565103661734.38,215.06,0,0,0,0,0
1565103661750,253.62,0,0,0,0,0
1565103661765.63,292.74,0,0,0,0,0
1565103661781.25,334.05,0,0,0,0,0
1565103661796.88,378.52,0,0,0,0,0
1565103661812.5,425.15,0,0,0,0,0
1565103661828.13,469.51,0,0,0,0,0
1565103661843.75,504.33,0,0,0,0,0
1565103661859.38,521.32,0,0,0,0,0
1565103661875,514.46,0,0,0,0,0
1565103661890.63,482.95,0,0,0,0,0
1565103661906.25,431.59,0,0,0,0,0
1565103661921.88,369.06,0,0,0,0,0
1565103661937.5,304.78,0,0,0,0,0
1565103661953.13,245.99,0,0,0,0,0
1565103661968.75,196.27,0,0,0,0,0
1565103661984.38,156.17,0,0,0,0,0
1565103662000,124.42,0,0,0,0,0
1565103662015.63,99.15,0,0,0,0,0
1565103662031.25,78.68,0,0,0,0,0
1565103662046.88,61.24,0,0,0,0,0
1565103662062.5,45.01,0,0,0,0,0
1565103662078.13,28.56,0,0,0,0,0
1565103662093.75,11.54,0,0,0,0,0
1565103662109.38,-5,0,0,0,0,0
1565103662125,-18.87,0,0,0,0,0
1565103662140.63,-27.83,0,0,0,0,0
1565103662156.25,-30.5,0,0,0,0,0
1565103662171.88,-26.98,0,0,0,0,0
1565103662187.5,-18.9,0,0,0,0,0
1565103662203.13,-8.73,0,0,0,0,0
1565103662218.75,1.01,0,0,0,0,0
1565103662234.38,8.43,0,0,0,0,0
1565103662250,12.38,0,0,0,0,0
1565103662265.63,12.27,0,0,0,0,0
1565103662281.25,7.44,0,0,0,0,0
1565103662296.88,-3.05,0,0,0,0,0
1565103662312.5,-20.43,0,0,0,0,0
1565103662328.13,-45.84,0,0,0,0,0
1565103662343.75,-79.97,0,0,0,0,0
1565103662359.38,-122.56,0,0,0,0,0
1565103662375,-172.34,0,0,0,0,0
1565103662390.63,-227.48,0,0,0,0,0
1565103662406.25,-285.77,0,0,0,0,0
1565103662421.88,-345.49,0,0,0,0,0
1565103662437.5,-405.49,0,0,0,0,0
1565103662453.13,-465.08,0,0,0,0,0
1565103662468.75,-523.88,0,0,0,0,0
1565103662484.38,-582.2,0,0,0,0,0
1565103662500,-640.98,0,0,0,0,0
1565103662515.63,-701.6,0,0,0,0,0
1565103662531.25,-764.87,0,0,0,0,0
1565103662546.88,-828.96,0,0,0,0,0
1565103662562.5,-888.91,0,0,0,0,0
1565103662578.13,-936.48,0,0,0,0,0
1565103662593.75,-962.02,0,0,0,0,0
1565103662609.38,-957.65,0,0,0,0,0
1565103662625,-920.69,0,0,0,0,0
1565103662640.63,-854.48,0,0,0,0,0
1565103662656.25,-767.18,0,0,0,0,0
1565103662671.88,-668.7,0,0,0,0,0
1565103662687.5,-566.45,0,0,0,0,0
1565103662703.13,-464.95,0,0,0,0,0
1565103662718.75,-365.54,0,0,0,0,0
1565103662734.38,-267.45,0,0,0,0,0
1565103662750,-169.57,0,0,0,0,0
1565103662765.63,-71.8,0,0,0,0,0
1565103662781.25,25.97,0,0,0,0,0
1565103662796.88,124.5,0,0,0,0,0
1565103662812.5,224.92,0,0,0,0,0
1565103662828.13,328.9,0,0,0,0,0
1565103662843.75,434.16,0,0,0,0,0
1565103662859.38,533.64,0,0,0,0,0
1565103662875,616.8,0,0,0,0,0
1565103662890.63,672.2,0,0,0,0,0
1565103662906.25,690.28,0,0,0,0,0
1565103662921.88,667.59,0,0,0,0,0
1565103662937.5,607.25,0,0,0,0,0
1565103662953.13,517.03,0,0,0,0,0
1565103662968.75,408.1,0,0,0,0,0
1565103662984.38,288.53,0,0,0,0,0
1565103663000,162.07,0,0,0,0,0
1565103663015.63,31.43,0,0,0,0,0
1565103663031.25,-97.46,0,0,0,0,0
1565103663046.88,-216.36,0,0,0,0,0
1565103663062.5,-314.62,0,0,0,0,0
1565103663078.13,-382.12,0,0,0,0,0
1565103663093.75,-423.59,0,0,0,0,0
1565103663109.38,-439.02,0,0,0,0,0
1565103663125,-429.29,0,0,0,0,0
1565103663140.63,-398.25,0,0,0,0,0
1565103663156.25,-352.24,0,0,0,0,0
1565103663171.88,-293.43,0,0,0,0,0
1565103663187.5,-227.78,0,0,0,0,0
1565103663203.13,-160.35,0,0,0,0,0
1565103663218.75,-94.17,0,0,0,0,0
1565103663234.38,-31.14,0,0,0,0,0
1565103663250,29.53,0,0,0,0,0
1565103663265.63,87.48,0,0,0,0,0
1565103663281.25,141.64,0,0,0,0,0
1565103663296.88,191.52,0,0,0,0,0
1565103663312.5,237.54,0,0,0,0,0
1565103663328.13,278.87,0,0,0,0,0
1565103663343.75,314.24,0,0,0,0,0
1565103663359.38,340.86,0,0,0,0,0
1565103663375,354.67,0,0,0,0,0
1565103663390.63,353.96,0,0,0,0,0
1565103663406.25,336.91,0,0,0,0,0
1565103663421.88,302.34,0,0,0,0,0
1565103663437.5,250.25,0,0,0,0,0
1565103663453.13,182.23,0,0,0,0,0
1565103663468.75,100.61,0,0,0,0,0
1565103663484.38,11.72,0,0,0,0,0
1565103663500,-75.45,0,0,0,0,0
1565103663515.63,-151.57,0,0,0,0,0
1565103663531.25,-206.59,0,0,0,0,0
1565103663546.88,-235.24,0,0,0,0,0
1565103663562.5,-238.01,0,0,0,0,0
1565103663578.13,-219.74,0,0,0,0,0
1565103663593.75,-187.24,0,0,0,0,0
1565103663609.38,-148.66,0,0,0,0,0
1565103663625,-108.04,0,0,0,0,0
1565103663640.63,-66.8,0,0,0,0,0
1565103663656.25,-25.52,0,0,0,0,0
1565103663671.88,18.85,0,0,0,0,0
1565103663687.5,68.97,0,0,0,0,0
1565103663703.13,126.33,0,0,0,0,0
1565103663718.75,191.72,0,0,0,0,0
1565103663734.38,265.08,0,0,0,0,0
1565103663750,343.12,0,0,0,0,0
1565103663765.63,424.86,0,0,0,0,0
1565103663781.25,507.95,0,0,0,0,0
1565103663796.88,586.28,0,0,0,0,0
1565103663812.5,654.82,0,0,0,0,0
1565103663828.13,707.99,0,0,0,0,0
1565103663843.75,741.89,0,0,0,0,0
1565103663859.38,757.16,0,0,0,0,0
1565103663875,759.12,0,0,0,0,0
1565103663890.63,752.21,0,0,0,0,0
1565103663906.25,743.7,0,0,0,0,0
1565103663921.88,737.28,0,0,0,0,0
1565103663937.5,705.32,0,0,0,0,0
1565103663953.13,626.99,0,0,0,0,0
1565103663968.75,494.66,0,0,0,0,0
1565103663984.38,319.2,0,0,0,0,0
1565103664000,126.68,0,0,0,0,0
1565103664015.63,-34.93,0,0,0,0,0
1565103664031.25,-154.02,0,0,0,0,0
1565103664046.88,-232.97,0,0,0,0,0
1565103664062.5,-280.07,0,0,0,0,0
1565103664078.13,-305.02,0,0,0,0,0
1565103664093.75,-316.44,0,0,0,0,0
1565103664109.38,-316.36,0,0,0,0,0
1565103664125,-304.19,0,0,0,0,0
1565103664140.63,-278.03,0,0,0,0,0
1565103664156.25,-237.69,0,0,0,0,0
1565103664171.88,-190.06,0,0,0,0,0
1565103664187.5,-140.16,0,0,0,0,0
1565103664203.13,-92.42,0,0,0,0,0
1565103664218.75,-51.2,0,0,0,0,0
1565103664234.38,-16.59,0,0,0,0,0
1565103664250,13.26,0,0,0,0,0
1565103664265.63,39.63,0,0,0,0,0
1565103664281.25,63.18,0,0,0,0,0
1565103664296.88,82.33,0,0,0,0,0
1565103664312.5,90.24,0,0,0,0,0
1565103664328.13,84.97,0,0,0,0,0
1565103664343.75,68.59,0,0,0,0,0
1565103664359.38,43.55,0,0,0,0,0
1565103664375,12.72,0,0,0,0,0
1565103664390.63,-23.89,0,0,0,0,0
1565103664406.25,-75.96,0,0,0,0,0
1565103664421.88,-148.08,0,0,0,0,0
1565103664437.5,-226.12,0,0,0,0,0
1565103664453.13,-297.16,0,0,0,0,0
1565103664468.75,-348.91,0,0,0,0,0
1565103664484.38,-369.82,0,0,0,0,0
1565103664500,-357.36,0,0,0,0,0
1565103664515.63,-319.18,0,0,0,0,0
1565103664531.25,-270.95,0,0,0,0,0
1565103664546.88,-230.12,0,0,0,0,0
1565103664562.5,-206.75,0,0,0,0,0
1565103664578.13,-200.31,0,0,0,0,0
1565103664593.75,-203.36,0,0,0,0,0
1565103664609.38,-201.72,0,0,0,0,0
1565103664625,-181.38,0,0,0,0,0
1565103664640.63,-135.31,0,0,0,0,0
1565103664656.25,-64.87,0,0,0,0,0
1565103664671.88,20.92,0,0,0,0,0
1565103664687.5,107.68,0,0,0,0,0
1565103664703.13,181.35,0,0,0,0,0
1565103664718.75,232.04,0,0,0,0,0
1565103664734.38,254.54,0,0,0,0,0
1565103664750,252.08,0,0,0,0,0
1565103664765.63,234.15,0,0,0,0,0
1565103664781.25,211.35,0,0,0,0,0
1565103664796.88,191.3,0,0,0,0,0
1565103664812.5,176.26,0,0,0,0,0
1565103664828.13,163.31,0,0,0,0,0
1565103664843.75,142.37,0,0,0,0,0
1565103664859.38,107.57,0,0,0,0,0
1565103664875,59.33,0,0,0,0,0
1565103664890.63,5.73,0,0,0,0,0
1565103664906.25,-42.81,0,0,0,0,0
1565103664921.88,-81.44,0,0,0,0,0
1565103664937.5,-113.47,0,0,0,0,0
1565103664953.13,-143.39,0,0,0,0,0
1565103664968.75,-176.59,0,0,0,0,0
1565103664984.38,-209.91,0,0,0,0,0
1565103665000,-232.08,0,0,0,0,0
1565103665015.63,-230.72,0,0,0,0,0
1565103665031.25,-198.94,0,0,0,0,0
1565103665046.88,-139.54,0,0,0,0,0
1565103665062.5,-67,0,0,0,0,0
1565103665078.13,-1.33,0,0,0,0,0
1565103665093.75,39.44,0,0,0,0,0
1565103665109.38,45.04,0,0,0,0,0
1565103665125,17.56,0,0,0,0,0
1565103665140.63,-29.17,0,0,0,0,0
1565103665156.25,-74.8,0,0,0,0,0
1565103665171.88,-100.19,0,0,0,0,0
1565103665187.5,-93.43,0,0,0,0,0
1565103665203.13,-54.05,0,0,0,0,0
1565103665218.75,8.96,0,0,0,0,0
1565103665234.38,82.44,0,0,0,0,0
1565103665250,153.77,0,0,0,0,0
1565103665265.63,213.95,0,0,0,0,0
1565103665281.25,257.39,0,0,0,0,0
1565103665296.88,280.88,0,0,0,0,0
1565103665312.5,282.72,0,0,0,0,0
1565103665328.13,263.12,0,0,0,0,0
1565103665343.75,223.98,0,0,0,0,0
1565103665359.38,169.04,0,0,0,0,0
1565103665375,103.18,0,0,0,0,0
1565103665390.63,30.16,0,0,0,0,0
1565103665406.25,-48.69,0,0,0,0,0
1565103665421.88,-133.63,0,0,0,0,0
1565103665437.5,-223.38,0,0,0,0,0
1565103665453.13,-313.8,0,0,0,0,0
1565103665468.75,-393.51,0,0,0,0,0
1565103665484.38,-448.6,0,0,0,0,0
1565103665500,-473.19,0,0,0,0,0
1565103665515.63,-471.08,0,0,0,0,0
1565103665531.25,-450.74,0,0,0,0,0
1565103665546.88,-417.94,0,0,0,0,0
1565103665562.5,-376.63,0,0,0,0,0
1565103665578.13,-327.56,0,0,0,0,0
1565103665593.75,-269.35,0,0,0,0,0
1565103665609.38,-201.13,0,0,0,0,0
1565103665625,-125.65,0,0,0,0,0
1565103665640.63,-49.56,0,0,0,0,0
1565103665656.25,19.08,0,0,0,0,0
1565103665671.88,73.9,0,0,0,0,0
1565103665687.5,112.95,0,0,0,0,0
1565103665703.13,139.12,0,0,0,0,0
1565103665718.75,159.81,0,0,0,0,0
1565103665734.38,184.31,0,0,0,0,0
1565103665750,220.71,0,0,0,0,0
1565103665765.63,272.35,0,0,0,0,0
1565103665781.25,336.32,0,0,0,0,0
1565103665796.88,404.36,0,0,0,0,0
1565103665812.5,464.91,0,0,0,0,0
1565103665828.13,506.32,0,0,0,0,0
1565103665843.75,520.71,0,0,0,0,0
1565103665859.38,506.62,0,0,0,0,0
1565103665875,469.72,0,0,0,0,0
1565103665890.63,419.59,0,0,0,0,0
1565103665906.25,365.06,0,0,0,0,0
1565103665921.88,310.88,0,0,0,0,0
1565103665937.5,256.63,0,0,0,0,0
1565103665953.13,198.38,0,0,0,0,0
1565103665968.75,131.95,0,0,0,0,0
1565103665984.38,55.7,0,0,0,0,0
1565103666000,-29.21,0,0,0,0,0
1565103666015.63,-119.28,0,0,0,0,0
1565103666031.25,-210.45,0,0,0,0,0
1565103666046.88,-298.97,0,0,0,0,0
1565103666062.5,-379.62,0,0,0,0,0
1565103666078.13,-445.19,0,0,0,0,0
1565103666093.75,-487.22,0,0,0,0,0
1565103666109.38,-498.81,0,0,0,0,0
1565103666125,-477.41,0,0,0,0,0
1565103666140.63,-427.31,0,0,0,0,0
1565103666156.25,-357.14,0,0,0,0,0
1565103666171.88,-277.1,0,0,0,0,0
1565103666187.5,-195.53,0,0,0,0,0
1565103666203.13,-115.65,0,0,0,0,0
1565103666218.75,-36.18,0,0,0,0,0
1565103666234.38,46.18,0,0,0,0,0
1565103666250,130.29,0,0,0,0,0
1565103666265.63,218.34,0,0,0,0,0
1565103666281.25,304.83,0,0,0,0,0
1565103666296.88,381.91,0,0,0,0,0
1565103666312.5,441.38,0,0,0,0,0
1565103666328.13,469.11,0,0,0,0,0
1565103666343.75,456.5,0,0,0,0,0
1565103666359.38,403.87,0,0,0,0,0
1565103666375,321.81,0,0,0,0,0
1565103666390.63,227.04,0,0,0,0,0
1565103666406.25,135.99,0,0,0,0,0
1565103666421.88,57.94,0,0,0,0,0
1565103666437.5,-4.4,0,0,0,0,0
1565103666453.13,-52.42,0,0,0,0,0
1565103666468.75,-88.4,0,0,0,0,0
1565103666484.38,-112.65,0,0,0,0,0
1565103666500,-125.13,0,0,0,0,0
1565103666515.63,-127.11,0,0,0,0,0
1565103666531.25,-122.02,0,0,0,0,0
1565103666546.88,-114.26,0,0,0,0,0
1565103666562.5,-108.31,0,0,0,0,0
1565103666578.13,-106.18,0,0,0,0,0
1565103666593.75,-107.33,0,0,0,0,0
1565103666609.38,-109.61,0,0,0,0,0
1565103666625,-109.79,0,0,0,0,0
1565103666640.63,-105.73,0,0,0,0,0
1565103666656.25,-97.28,0,0,0,0,0
1565103666671.88,-86.25,0,0,0,0,0
1565103666687.5,-75.26,0,0,0,0,0
1565103666703.13,-67.02,0,0,0,0,0
1565103666718.75,-62.57,0,0,0,0,0
1565103666734.38,-61.3,0,0,0,0,0
1565103666750,-61.57,0,0,0,0,0
1565103666765.63,-61.07,0,0,0,0,0
1565103666781.25,-58.22,0,0,0,0,0
1565103666796.88,-52.66,0,0,0,0,0
1565103666812.5,-45.39,0,0,0,0,0
1565103666828.13,-37.94,0,0,0,0,0
1565103666843.75,-31.93,0,0,0,0,0
1565103666859.38,-28.04,0,0,0,0,0
1565103666875,-26.06,0,0,0,0,0
1565103666890.63,-25.12,0,0,0,0,0
1565103666906.25,-24.04,0,0,0,0,0
1565103666921.88,-21.92,0,0,0,0,0
1565103666937.5,-18.51,0,0,0,0,0
1565103666953.13,-14.18,0,0,0,0,0
1565103666968.75,-9.59,0,0,0,0,0
1565103666984.38,-5.47,0,0,0,0,0
1565103667000,-2.17,0,0,0,0,0
1565103667015.63,0.34,0,0,0,0,0
1565103667031.25,2.36,0,0,0,0,0
1565103667046.88,4.33,0,0,0,0,0
1565103667062.5,6.58,0,0,0,0,0
1565103667078.13,9.22,0,0,0,0,0
1565103667093.75,12.12,0,0,0,0,0
1565103667109.38,15,0,0,0,0,0
1565103667125,17.61,0,0,0,0,0
1565103667140.63,19.72,0,0,0,0,0
1565103667156.25,21.22,0,0,0,0,0
1565103667171.88,22.1,0,0,0,0,0
1565103667187.5,22.38,0,0,0,0,0
1565103667203.13,22.01,0,0,0,0,0
1565103667218.75,20.99,0,0,0,0,0
1565103667234.38,19.31,0,0,0,0,0
1565103667250,16.96,0,0,0,0,0
1565103667265.63,14.03,0,0,0,0,0
1565103667281.25,10.68,0,0,0,0,0
1565103667296.88,7.1,0,0,0,0,0
1565103667312.5,3.51,0,0,0,0,0
1565103667328.13,0.13,0,0,0,0,0
1565103667343.75,-2.81,0,0,0,0,0
1565103667359.38,-5.2,0,0,0,0,0
1565103667375,-6.93,0,0,0,0,0
1565103667390.63,-8.03,0,0,0,0,0
1565103667406.25,-8.57,0,0,0,0,0
1565103667421.88,-8.78,0,0,0,0,0
1565103667437.5,-8.91,0,0,0,0,0
1565103667453.13,-9.25,0,0,0,0,0
1565103667468.75,-9.98,0,0,0,0,0
1565103667484.38,-11.26,0,0,0,0,0
1565103667500,-13.12,0,0,0,0,0
1565103667515.63,-15.45,0,0,0,0,0
1565103667531.25,-18,0,0,0,0,0
1565103667546.88,-20.54,0,0,0,0,0
1565103667562.5,-22.75,0,0,0,0,0
1565103667578.13,-24.1,0,0,0,0,0
1565103667593.75,-24.01,0,0,0,0,0
1565103667609.38,-21.9,0,0,0,0,0
1565103667625,-17.5,0,0,0,0,0
1565103667640.63,-10.83,0,0,0,0,0
1565103667656.25,-2.14,0,0,0,0,0
1565103667671.88,7.96,0,0,0,0,0
1565103667687.5,18.61,0,0,0,0,0
1565103667703.13,28.89,0,0,0,0,0
1565103667718.75,38.05,0,0,0,0,0
1565103667734.38,45.71,0,0,0,0,0
1565103667750,51.85,0,0,0,0,0
1565103667765.63,56.41,0,0,0,0,0
1565103667781.25,59.55,0,0,0,0,0
1565103667796.88,61.55,0,0,0,0,0
1565103667812.5,62.66,0,0,0,0,0
1565103667828.13,62.72,0,0,0,0,0
1565103667843.75,61.65,0,0,0,0,0
1565103667859.38,59.68,0,0,0,0,0
1565103667875,57.45,0,0,0,0,0
1565103667890.63,55.93,0,0,0,0,0
1565103667906.25,55.57,0,0,0,0,0
1565103667921.88,56.84,0,0,0,0,0
1565103667937.5,59.84,0,0,0,0,0
1565103667953.13,64.23,0,0,0,0,0
1565103667968.75,68.42,0,0,0,0,0
1565103667984.38,70.98,0,0,0,0,0
1565103668000,71.33,0,0,0,0,0
1565103668015.63,70.02,0,0,0,0,0
1565103668031.25,68.46,0,0,0,0,0
1565103668046.88,67.55,0,0,0,0,0
1565103668062.5,68.05,0,0,0,0,0
1565103668078.13,70.03,0,0,0,0,0
1565103668093.75,72.71,0,0,0,0,0
1565103668109.38,72.82,0,0,0,0,0
1565103668125,67.27,0,0,0,0,0
1565103668140.63,54.27,0,0,0,0,0
1565103668156.25,33.49,0,0,0,0,0
1565103668171.88,10.18,0,0,0,0,0
1565103668187.5,-12.48,0,0,0,0,0
1565103668203.13,-32.46,0,0,0,0,0
1565103668218.75,-49.09,0,0,0,0,0
1565103668234.38,-63.06,0,0,0,0,0
1565103668250,-78.59,0,0,0,0,0
1565103668265.63,-99.18,0,0,0,0,0
1565103668281.25,-126.08,0,0,0,0,0
1565103668296.88,-158.08,0,0,0,0,0
1565103668312.5,-193.11,0,0,0,0,0
1565103668328.13,-230.14,0,0,0,0,0
1565103668343.75,-267.98,0,0,0,0,0
1565103668359.38,-304.48,0,0,0,0,0
1565103668375,-335.82,0,0,0,0,0
1565103668390.63,-360.98,0,0,0,0,0
1565103668406.25,-379,0,0,0,0,0
1565103668421.88,-389.6,0,0,0,0,0
1565103668437.5,-394.01,0,0,0,0,0
1565103668453.13,-395.24,0,0,0,0,0
1565103668468.75,-397.41,0,0,0,0,0
1565103668484.38,-402.3,0,0,0,0,0
1565103668500,-408.03,0,0,0,0,0
1565103668515.63,-388.46,0,0,0,0,0
1565103668531.25,-330,0,0,0,0,0
1565103668546.88,-237.32,0,0,0,0,0
1565103668562.5,-131.44,0,0,0,0,0
1565103668578.13,-35.47,0,0,0,0,0
1565103668593.75,37.19,0,0,0,0,0
1565103668609.38,84.49,0,0,0,0,0
1565103668625,112.1,0,0,0,0,0
1565103668640.63,128.08,0,0,0,0,0
1565103668656.25,139.37,0,0,0,0,0
1565103668671.88,146.23,0,0,0,0,0
1565103668687.5,147.15,0,0,0,0,0
1565103668703.13,141.76,0,0,0,0,0
1565103668718.75,132.19,0,0,0,0,0
1565103668734.38,122.28,0,0,0,0,0
1565103668750,115.27,0,0,0,0,0
1565103668765.63,113.15,0,0,0,0,0
1565103668781.25,116.37,0,0,0,0,0
1565103668796.88,124.83,0,0,0,0,0
1565103668812.5,135.06,0,0,0,0,0
1565103668828.13,144.64,0,0,0,0,0
1565103668843.75,153.65,0,0,0,0,0
1565103668859.38,164.35,0,0,0,0,0
1565103668875,179.07,0,0,0,0,0
1565103668890.63,197.96,0,0,0,0,0
1565103668906.25,219.07,0,0,0,0,0
1565103668921.88,235.34,0,0,0,0,0
1565103668937.5,241.55,0,0,0,0,0
1565103668953.13,233.95,0,0,0,0,0
1565103668968.75,213.5,0,0,0,0,0
1565103668984.38,185.59,0,0,0,0,0
1565103669000,157.57,0,0,0,0,0
1565103669015.63,135.37,0,0,0,0,0
1565103669031.25,121.23,0,0,0,0,0
1565103669046.88,113.95,0,0,0,0,0
1565103669062.5,110.49,0,0,0,0,0
1565103669078.13,108.6,0,0,0,0,0
1565103669093.75,106.31,0,0,0,0,0
1565103669109.38,102.99,0,0,0,0,0
1565103669125,98.9,0,0,0,0,0
1565103669140.63,94.63,0,0,0,0,0
1565103669156.25,90.52,0,0,0,0,0
1565103669171.88,86.52,0,0,0,0,0
1565103669187.5,82.34,0,0,0,0,0
1565103669203.13,77.57,0,0,0,0,0
1565103669218.75,72.29,0,0,0,0,0
1565103669234.38,66.52,0,0,0,0,0
1565103669250,60.6,0,0,0,0,0
1565103669265.63,55.38,0,0,0,0,0
1565103669281.25,51.97,0,0,0,0,0
1565103669296.88,51.18,0,0,0,0,0
1565103669312.5,52.93,0,0,0,0,0
1565103669328.13,56.06,0,0,0,0,0
1565103669343.75,58.39,0,0,0,0,0
1565103669359.38,57.46,0,0,0,0,0
1565103669375,50.79,0,0,0,0,0
1565103669390.63,36.45,0,0,0,0,0
1565103669406.25,13.66,0,0,0,0,0
1565103669421.88,-16.79,0,0,0,0,0
1565103669437.5,-52.15,0,0,0,0,0
1565103669453.13,-87.86,0,0,0,0,0
1565103669468.75,-118.23,0,0,0,0,0
1565103669484.38,-137.7,0,0,0,0,0
1565103669500,-142.23,0,0,0,0,0
1565103669515.63,-130.73,0,0,0,0,0
1565103669531.25,-105.56,0,0,0,0,0
1565103669546.88,-71.86,0,0,0,0,0
1565103669562.5,-36.09,0,0,0,0,0
1565103669578.13,-4.13,0,0,0,0,0
1565103669593.75,20.14,0,0,0,0,0
1565103669609.38,35.5,0,0,0,0,0
1565103669625,43.01,0,0,0,0,0
1565103669640.63,45.19,0,0,0,0,0
1565103669656.25,44.89,0,0,0,0,0
1565103669671.88,44.55,0,0,0,0,0
1565103669687.5,45.81,0,0,0,0,0
1565103669703.13,49.41,0,0,0,0,0
1565103669718.75,55.24,0,0,0,0,0
1565103669734.38,62.41,0,0,0,0,0
1565103669750,69.51,0,0,0,0,0
1565103669765.63,74.85,0,0,0,0,0
1565103669781.25,77.01,0,0,0,0,0
1565103669796.88,75.25,0,0,0,0,0
1565103669812.5,69.85,0,0,0,0,0
1565103669828.13,62.02,0,0,0,0,0
1565103669843.75,53.58,0,0,0,0,0
1565103669859.38,46.28,0,0,0,0,0
1565103669875,41.29,0,0,0,0,0
1565103669890.63,38.84,0,0,0,0,0
1565103669906.25,38.23,0,0,0,0,0
1565103669921.88,38.23,0,0,0,0,0
1565103669937.5,37.63,0,0,0,0,0
1565103669953.13,35.71,0,0,0,0,0
1565103669968.75,32.4,0,0,0,0,0
1565103669984.38,28.15,0,0,0,0,0
1565103670000,23.47,0,0,0,0,0
1565103670015.63,18.61,0,0,0,0,0
1565103670031.25,13.43,0,0,0,0,0
1565103670046.88,7.53,0,0,0,0,0
1565103670062.5,0.66,0,0,0,0,0
1565103670078.13,-7.06,0,0,0,0,0
1565103670093.75,-15.07,0,0,0,0,0
1565103670109.38,-22.66,0,0,0,0,0
1565103670125,-29.29,0,0,0,0,0
1565103670140.63,-34.84,0,0,0,0,0
1565103670156.25,-39.59,0,0,0,0,0
1565103670171.88,-44.06,0,0,0,0,0
1565103670187.5,-48.66,0,0,0,0,0
1565103670203.13,-53.47,0,0,0,0,0
1565103670218.75,-58.24,0,0,0,0,0
1565103670234.38,-62.49,0,0,0,0,0
1565103670250,-65.73,0,0,0,0,0
1565103670265.63,-67.59,0,0,0,0,0
1565103670281.25,-67.95,0,0,0,0,0
1565103670296.88,-67.03,0,0,0,0,0
1565103670312.5,-65.31,0,0,0,0,0
1565103670328.13,-63.43,0,0,0,0,0
1565103670343.75,-61.92,0,0,0,0,0
1565103670359.38,-61.08,0,0,0,0,0
1565103670375,-60.88,0,0,0,0,0
1565103670390.63,-61.09,0,0,0,0,0
1565103670406.25,-61.38,0,0,0,0,0
1565103670421.88,-61.57,0,0,0,0,0
1565103670437.5,-61.6,0,0,0,0,0
1565103670453.13,-61.48,0,0,0,0,0
1565103670468.75,-61.14,0,0,0,0,0
1565103670484.38,-60.4,0,0,0,0,0
1565103670500,-58.99,0,0,0,0,0
1565103670515.63,-56.77,0,0,0,0,0
1565103670531.25,-53.81,0,0,0,0,0
1565103670546.88,-50.37,0,0,0,0,0
1565103670562.5,-46.86,0,0,0,0,0
1565103670578.13,-43.61,0,0,0,0,0
1565103670593.75,-40.83,0,0,0,0,0
1565103670609.38,-38.61,0,0,0,0,0
1565103670625,-36.91,0,0,0,0,0
1565103670640.63,-35.64,0,0,0,0,0
1565103670656.25,-34.66,0,0,0,0,0
1565103670671.88,-33.71,0,0,0,0,0
1565103670687.5,-32.53,0,0,0,0,0
1565103670703.13,-30.89,0,0,0,0,0
1565103670718.75,-28.74,0,0,0,0,0
1565103670734.38,-26.26,0,0,0,0,0
1565103670750,-23.76,0,0,0,0,0
1565103670765.63,-21.55,0,0,0,0,0
1565103670781.25,-19.79,0,0,0,0,0
1565103670796.88,-18.38,0,0,0,0,0
1565103670812.5,-17.07,0,0,0,0,0
1565103670828.13,-15.64,0,0,0,0,0
1565103670843.75,-13.99,0,0,0,0,0
1565103670859.38,-12.24,0,0,0,0,0
1565103670875,-10.56,0,0,0,0,0
1565103670890.63,-9.11,0,0,0,0,0
1565103670906.25,-7.87,0,0,0,0,0
1565103670921.88,-6.71,0,0,0,0,0
1565103670937.5,-5.48,0,0,0,0,0
1565103670953.13,-4.15,0,0,0,0,0
1565103670968.75,-2.85,0,0,0,0,0
1565103670984.38,-1.75,0,0,0,0,0
1565103671000,-1.02,0,0,0,0,0
1565103671015.63,-0.61,0,0,0,0,0
1565103671031.25,-0.4,0,0,0,0,0
1565103671046.88,-0.21,0,0,0,0,0
1565103671062.5,0.06,0,0,0,0,0
1565103671078.13,0.42,0,0,0,0,0
1565103671093.75,0.76,0,0,0,0,0
1565103671109.38,0.97,0,0,0,0,0
1565103671125,1.01,0,0,0,0,0
1565103671140.63,0.88,0,0,0,0,0
1565103671156.25,0.56,0,0,0,0,0
1565103671171.88,-0.02,0,0,0,0,0
1565103671187.5,-0.97,0,0,0,0,0
1565103671203.13,-2.41,0,0,0,0,0
1565103671218.75,-4.35,0,0,0,0,0
1565103671234.38,-6.62,0,0,0,0,0
1565103671250,-8.99,0,0,0,0,0
1565103671265.63,-11.14,0,0,0,0,0
1565103671281.25,-12.89,0,0,0,0,0
1565103671296.88,-14.18,0,0,0,0,0
1565103671312.5,-15.08,0,0,0,0,0
1565103671328.13,-15.71,0,0,0,0,0
1565103671343.75,-16.27,0,0,0,0,0
1565103671359.38,-16.92,0,0,0,0,0
1565103671375,-17.83,0,0,0,0,0
1565103671390.63,-19.16,0,0,0,0,0
1565103671406.25,-20.91,0,0,0,0,0
1565103671421.88,-22.97,0,0,0,0,0
1565103671437.5,-25.17,0,0,0,0,0
1565103671453.13,-27.3,0,0,0,0,0
1565103671468.75,-29.2,0,0,0,0,0
1565103671484.38,-30.72,0,0,0,0,0
1565103671500,-31.59,0,0,0,0,0
1565103671515.63,-31.35,0,0,0,0,0
1565103671531.25,-29.41,0,0,0,0,0
1565103671546.88,-25.3,0,0,0,0,0
1565103671562.5,-18.9,0,0,0,0,0
1565103671578.13,-10.58,0,0,0,0,0
1565103671593.75,-1.15,0,0,0,0,0
1565103671609.38,8.46,0,0,0,0,0
1565103671625,17.48,0,0,0,0,0
1565103671640.63,25.44,0,0,0,0,0
1565103671656.25,32.19,0,0,0,0,0
1565103671671.88,37.68,0,0,0,0,0
1565103671687.5,41.89,0,0,0,0,0
1565103671703.13,44.83,0,0,0,0,0
1565103671718.75,46.64,0,0,0,0,0
1565103671734.38,47.69,0,0,0,0,0
1565103671750,48.57,0,0,0,0,0
1565103671765.63,49.85,0,0,0,0,0
1565103671781.25,51.84,0,0,0,0,0
1565103671796.88,54.36,0,0,0,0,0
1565103671812.5,56.71,0,0,0,0,0
1565103671828.13,58,0,0,0,0,0
1565103671843.75,57.4,0,0,0,0,0
1565103671859.38,54.58,0,0,0,0,0
1565103671875,49.93,0,0,0,0,0
1565103671890.63,44.31,0,0,0,0,0
1565103671906.25,38.89,0,0,0,0,0
1565103671921.88,34.8,0,0,0,0,0
1565103671937.5,33.01,0,0,0,0,0
1565103671953.13,34.27,0,0,0,0,0
1565103671968.75,38.96,0,0,0,0,0
1565103671984.38,46.8,0,0,0,0,0
1565103672000,56.62,0,0,0,0,0
1565103672015.63,66.37,0,0,0,0,0
1565103672031.25,73.59,0,0,0,0,0
1565103672046.88,76.22,0,0,0,0,0
1565103672062.5,73.36,0,0,0,0,0
1565103672078.13,65.69,0,0,0,0,0
1565103672093.75,54.98,0,0,0,0,0
1565103672109.38,43.37,0,0,0,0,0
1565103672125,32.46,0,0,0,0,0
1565103672140.63,22.91,0,0,0,0,0
1565103672156.25,14.65,0,0,0,0,0
1565103672171.88,7.37,0,0,0,0,0
1565103672187.5,1.02,0,0,0,0,0
1565103672203.13,-4.15,0,0,0,0,0
1565103672218.75,-7.84,0,0,0,0,0
1565103672234.38,-10.05,0,0,0,0,0
1565103672250,-11.29,0,0,0,0,0
1565103672265.63,-12.38,0,0,0,0,0
1565103672281.25,-14.15,0,0,0,0,0
1565103672296.88,-17.19,0,0,0,0,0
1565103672312.5,-21.8,0,0,0,0,0
1565103672328.13,-27.86,0,0,0,0,0
1565103672343.75,-35.16,0,0,0,0,0
1565103672359.38,-43.5,0,0,0,0,0
1565103672375,-52.62,0,0,0,0,0
1565103672390.63,-62.26,0,0,0,0,0
1565103672406.25,-72.01,0,0,0,0,0
1565103672421.88,-81.37,0,0,0,0,0
1565103672437.5,-89.82,0,0,0,0,0
1565103672453.13,-96.89,0,0,0,0,0
1565103672468.75,-102.3,0,0,0,0,0
1565103672484.38,-105.93,0,0,0,0,0
1565103672500,-107.98,0,0,0,0,0
1565103672515.63,-108.77,0,0,0,0,0
1565103672531.25,-108.8,0,0,0,0,0
1565103672546.88,-108.54,0,0,0,0,0
1565103672562.5,-108.31,0,0,0,0,0
1565103672578.13,-108.11,0,0,0,0,0
1565103672593.75,-107.65,0,0,0,0,0
1565103672609.38,-106.52,0,0,0,0,0
1565103672625,-104.56,0,0,0,0,0
1565103672640.63,-102.06,0,0,0,0,0
1565103672656.25,-99.82,0,0,0,0,0
1565103672671.88,-98.86,0,0,0,0,0
1565103672687.5,-99.9,0,0,0,0,0
1565103672703.13,-102.88,0,0,0,0,0
1565103672718.75,-106.74,0,0,0,0,0
1565103672734.38,-109.68,0,0,0,0,0
1565103672750,-109.78,0,0,0,0,0
1565103672765.63,-105.89,0,0,0,0,0
1565103672781.25,-98.1,0,0,0,0,0
1565103672796.88,-87.95,0,0,0,0,0
1565103672812.5,-77.9,0,0,0,0,0
1565103672828.13,-70.4,0,0,0,0,0
1565103672843.75,-66.91,0,0,0,0,0
1565103672859.38,-67.26,0,0,0,0,0
1565103672875,-69.88,0,0,0,0,0
1565103672890.63,-72.32,0,0,0,0,0
1565103672906.25,-72.34,0,0,0,0,0
1565103672921.88,-68.72,0,0,0,0,0
1565103672937.5,-61.63,0,0,0,0,0
1565103672953.13,-52.34,0,0,0,0,0
1565103672968.75,-42.37,0,0,0,0,0
1565103672984.38,-32.88,0,0,0,0,0
1565103673000,-24.21,0,0,0,0,0
1565103673015.63,-16.44,0,0,0,0,0
1565103673031.25,-9.49,0,0,0,0,0
1565103673046.88,-3.25,0,0,0,0,0
1565103673062.5,2.55,0,0,0,0,0
1565103673078.13,8.71,0,0,0,0,0
1565103673093.75,16.21,0,0,0,0,0
1565103673109.38,25.12,0,0,0,0,0
1565103673125,33.46,0,0,0,0,0
1565103673140.63,36.98,0,0,0,0,0
1565103673156.25,30.34,0,0,0,0,0
1565103673171.88,10.63,0,0,0,0,0
1565103673187.5,-20.1,0,0,0,0,0
1565103673203.13,-54.32,0,0,0,0,0
1565103673218.75,-81.69,0,0,0,0,0
1565103673234.38,-93.58,0,0,0,0,0
1565103673250,-86.69,0,0,0,0,0
1565103673265.63,-64.01,0,0,0,0,0
1565103673281.25,-32.6,0,0,0,0,0
1565103673296.88,-0.66,0,0,0,0,0
1565103673312.5,26.52,0,0,0,0,0
1565103673328.13,47.69,0,0,0,0,0
1565103673343.75,64.26,0,0,0,0,0
1565103673359.38,77.7,0,0,0,0,0
1565103673375,88,0,0,0,0,0
1565103673390.63,93.97,0,0,0,0,0
1565103673406.25,94.74,0,0,0,0,0
1565103673421.88,90.86,0,0,0,0,0
1565103673437.5,82.52,0,0,0,0,0
1565103673453.13,70.85,0,0,0,0,0
1565103673468.75,57.45,0,0,0,0,0
1565103673484.38,43.97,0,0,0,0,0
1565103673500,31.53,0,0,0,0,0
1565103673515.63,20.38,0,0,0,0,0
1565103673531.25,10.38,0,0,0,0,0
1565103673546.88,1.58,0,0,0,0,0
1565103673562.5,-5.78,0,0,0,0,0
1565103673578.13,-14.24,0,0,0,0,0
1565103673593.75,-25.89,0,0,0,0,0
1565103673609.38,-41.66,0,0,0,0,0
1565103673625,-60.99,0,0,0,0,0
1565103673640.63,-82.74,0,0,0,0,0
1565103673656.25,-105.9,0,0,0,0,0
1565103673671.88,-129.27,0,0,0,0,0
1565103673687.5,-151.28,0,0,0,0,0
1565103673703.13,-169.96,0,0,0,0,0
1565103673718.75,-186.86,0,0,0,0,0
1565103673734.38,-203.04,0,0,0,0,0
1565103673750,-218.07,0,0,0,0,0
1565103673765.63,-230.33,0,0,0,0,0
1565103673781.25,-238.6,0,0,0,0,0
1565103673796.88,-243.24,0,0,0,0,0
1565103673812.5,-246.13,0,0,0,0,0
1565103673828.13,-249.53,0,0,0,0,0
1565103673843.75,-232.21,0,0,0,0,0
1565103673859.38,-181.86,0,0,0,0,0
1565103673875,-99.48,0,0,0,0,0
1565103673890.63,-0.01,0,0,0,0,0
1565103673906.25,98.18,0,0,0,0,0
1565103673921.88,183.04,0,0,0,0,0
1565103673937.5,250.34,0,0,0,0,0
1565103673953.13,300.41,0,0,0,0,0
1565103673968.75,335.32,0,0,0,0,0
1565103673984.38,357.51,0,0,0,0,0
1565103674000,366.12,0,0,0,0,0
1565103674015.63,361.36,0,0,0,0,0
1565103674031.25,345.73,0,0,0,0,0
1565103674046.88,324.15,0,0,0,0,0
1565103674062.5,300.82,0,0,0,0,0
1565103674078.13,278.77,0,0,0,0,0
1565103674093.75,259.37,0,0,0,0,0
1565103674109.38,242.09,0,0,0,0,0
1565103674125,225.07,0,0,0,0,0
1565103674140.63,204.25,0,0,0,0,0
1565103674156.25,177.69,0,0,0,0,0
1565103674171.88,147.31,0,0,0,0,0
1565103674187.5,117,0,0,0,0,0
1565103674203.13,91.06,0,0,0,0,0
1565103674218.75,72.24,0,0,0,0,0
1565103674234.38,59.99,0,0,0,0,0
1565103674250,52.7,0,0,0,0,0
1565103674265.63,44.7,0,0,0,0,0
1565103674281.25,28.8,0,0,0,0,0
1565103674296.88,1.71,0,0,0,0,0
1565103674312.5,-33.22,0,0,0,0,0
1565103674328.13,-69.64,0,0,0,0,0
1565103674343.75,-99.29,0,0,0,0,0
1565103674359.38,-114.53,0,0,0,0,0
1565103674375,-111.14,0,0,0,0,0
1565103674390.63,-90.81,0,0,0,0,0
1565103674406.25,-58.62,0,0,0,0,0
1565103674421.88,-19.39,0,0,0,0,0
1565103674437.5,25.47,0,0,0,0,0
1565103674453.13,77.87,0,0,0,0,0
1565103674468.75,135.2,0,0,0,0,0
1565103674484.38,190.88,0,0,0,0,0
1565103674500,235.84,0,0,0,0,0
1565103674515.63,260.66,0,0,0,0,0
1565103674531.25,255.97,0,0,0,0,0
1565103674546.88,216.37,0,0,0,0,0
1565103674562.5,143.29,0,0,0,0,0
1565103674578.13,45.25,0,0,0,0,0
1565103674593.75,-63.58,0,0,0,0,0
1565103674609.38,-172.99,0,0,0,0,0
1565103674625,-274.07,0,0,0,0,0
1565103674640.63,-357.96,0,0,0,0,0
1565103674656.25,-399.21,0,0,0,0,0
1565103674671.88,-378.69,0,0,0,0,0
1565103674687.5,-299,0,0,0,0,0
1565103674703.13,-187.76,0,0,0,0,0
1565103674718.75,-94.85,0,0,0,0,0
1565103674734.38,-34.79,0,0,0,0,0
1565103674750,-10.76,0,0,0,0,0
1565103674765.63,-19.23,0,0,0,0,0
1565103674781.25,-48.4,0,0,0,0,0
1565103674796.88,-83.51,0,0,0,0,0
1565103674812.5,-110.9,0,0,0,0,0
1565103674828.13,-121.19,0,0,0,0,0
1565103674843.75,-112.38,0,0,0,0,0
1565103674859.38,-89.19,0,0,0,0,0
1565103674875,-61.44,0,0,0,0,0
1565103674890.63,-45.81,0,0,0,0,0
1565103674906.25,-54.42,0,0,0,0,0
1565103674921.88,-87.22,0,0,0,0,0
1565103674937.5,-132.2,0,0,0,0,0
1565103674953.13,-173.71,0,0,0,0,0
1565103674968.75,-199.06,0,0,0,0,0
1565103674984.38,-202.81,0,0,0,0,0
1565103675000,-183.63,0,0,0,0,0
1565103675015.63,-142.73,0,0,0,0,0
1565103675031.25,-86.24,0,0,0,0,0
1565103675046.88,-19.42,0,0,0,0,0
1565103675062.5,55.87,0,0,0,0,0
1565103675078.13,139.62,0,0,0,0,0
1565103675093.75,230.13,0,0,0,0,0
1565103675109.38,317.89,0,0,0,0,0
1565103675125,386.76,0,0,0,0,0
1565103675140.63,427.02,0,0,0,0,0
1565103675156.25,441.25,0,0,0,0,0
1565103675171.88,439.36,0,0,0,0,0
1565103675187.5,431.83,0,0,0,0,0
1565103675203.13,423.26,0,0,0,0,0
1565103675218.75,410.39,0,0,0,0,0
1565103675234.38,384.62,0,0,0,0,0
1565103675250,347.02,0,0,0,0,0
1565103675265.63,291.55,0,0,0,0,0
1565103675281.25,221.91,0,0,0,0,0
1565103675296.88,148.33,0,0,0,0,0
1565103675312.5,80.3,0,0,0,0,0
1565103675328.13,22.79,0,0,0,0,0
1565103675343.75,-24.58,0,0,0,0,0
1565103675359.38,-67.04,0,0,0,0,0
1565103675375,-112.8,0,0,0,0,0
1565103675390.63,-167.51,0,0,0,0,0
1565103675406.25,-235.38,0,0,0,0,0
1565103675421.88,-307.09,0,0,0,0,0
1565103675437.5,-368.56,0,0,0,0,0
1565103675453.13,-406.29,0,0,0,0,0
1565103675468.75,-412.66,0,0,0,0,0
1565103675484.38,-387.59,0,0,0,0,0
1565103675500,-337.95,0,0,0,0,0
1565103675515.63,-274.94,0,0,0,0,0
1565103675531.25,-210.61,0,0,0,0,0
1565103675546.88,-155.86,0,0,0,0,0
1565103675562.5,-114.17,0,0,0,0,0
1565103675578.13,-84.41,0,0,0,0,0
1565103675593.75,-62.94,0,0,0,0,0
1565103675609.38,-47.15,0,0,0,0,0
1565103675625,-34.16,0,0,0,0,0
1565103675640.63,-22.99,0,0,0,0,0
1565103675656.25,-13.14,0,0,0,0,0
1565103675671.88,-2.8,0,0,0,0,0
1565103675687.5,9.94,0,0,0,0,0
1565103675703.13,28.96,0,0,0,0,0
1565103675718.75,55.82,0,0,0,0,0
1565103675734.38,88.66,0,0,0,0,0
1565103675750,123.05,0,0,0,0,0
1565103675765.63,154.54,0,0,0,0,0
1565103675781.25,180.22,0,0,0,0,0
1565103675796.88,195.56,0,0,0,0,0
1565103675812.5,200.07,0,0,0,0,0
1565103675828.13,189.03,0,0,0,0,0
1565103675843.75,162.53,0,0,0,0,0
1565103675859.38,123.9,0,0,0,0,0
1565103675875,78.77,0,0,0,0,0
1565103675890.63,32.44,0,0,0,0,0
1565103675906.25,-11.52,0,0,0,0,0
1565103675921.88,-51.82,0,0,0,0,0
1565103675937.5,-87.96,0,0,0,0,0
1565103675953.13,-118.83,0,0,0,0,0
1565103675968.75,-142.22,0,0,0,0,0
1565103675984.38,-155.6,0,0,0,0,0
1565103676000,-158.32,0,0,0,0,0
1565103676015.63,-152.13,0,0,0,0,0
1565103676031.25,-141.35,0,0,0,0,0
1565103676046.88,-128.99,0,0,0,0,0
1565103676062.5,-117.39,0,0,0,0,0
1565103676078.13,-107.58,0,0,0,0,0
1565103676093.75,-98.74,0,0,0,0,0
1565103676109.38,-88.03,0,0,0,0,0
1565103676125,-72.68,0,0,0,0,0
1565103676140.63,-51.67,0,0,0,0,0
1565103676156.25,-25.97,0,0,0,0,0
1565103676171.88,2.71,0,0,0,0,0
1565103676187.5,33.56,0,0,0,0,0
1565103676203.13,67.08,0,0,0,0,0
1565103676218.75,105.07,0,0,0,0,0
1565103676234.38,145.51,0,0,0,0,0
1565103676250,187.54,0,0,0,0,0
1565103676265.63,228.27,0,0,0,0,0
1565103676281.25,262.73,0,0,0,0,0
1565103676296.88,285.31,0,0,0,0,0
1565103676312.5,291.94,0,0,0,0,0
1565103676328.13,281.52,0,0,0,0,0
1565103676343.75,255.05,0,0,0,0,0
1565103676359.38,214.48,0,0,0,0,0
1565103676375,151.46,0,0,0,0,0
1565103676390.63,66,0,0,0,0,0
1565103676406.25,-33.71,0,0,0,0,0
1565103676421.88,-132.68,0,0,0,0,0
1565103676437.5,-215.65,0,0,0,0,0
1565103676453.13,-272.94,0,0,0,0,0
1565103676468.75,-302.54,0,0,0,0,0
1565103676484.38,-309.4,0,0,0,0,0
1565103676500,-303.76,0,0,0,0,0
1565103676515.63,-292.31,0,0,0,0,0
1565103676531.25,-275.61,0,0,0,0,0
1565103676546.88,-252.01,0,0,0,0,0
1565103676562.5,-219.56,0,0,0,0,0
1565103676578.13,-180.22,0,0,0,0,0
1565103676593.75,-140.22,0,0,0,0,0
1565103676609.38,-107.4,0,0,0,0,0
1565103676625,-88.6,0,0,0,0,0
1565103676640.63,-83.34,0,0,0,0,0
1565103676656.25,-82.75,0,0,0,0,0
1565103676671.88,-72.33,0,0,0,0,0
1565103676687.5,-39.95,0,0,0,0,0
1565103676703.13,20.06,0,0,0,0,0
1565103676718.75,103.07,0,0,0,0,0
1565103676734.38,197.32,0,0,0,0,0
1565103676750,290.21,0,0,0,0,0
1565103676765.63,373.57,0,0,0,0,0
1565103676781.25,445.01,0,0,0,0,0
1565103676796.88,504.99,0,0,0,0,0
1565103676812.5,553.11,0,0,0,0,0
1565103676828.13,585.72,0,0,0,0,0
1565103676843.75,598.85,0,0,0,0,0
1565103676859.38,588.22,0,0,0,0,0
1565103676875,551.75,0,0,0,0,0
1565103676890.63,490.86,0,0,0,0,0
1565103676906.25,410.43,0,0,0,0,0
1565103676921.88,316.41,0,0,0,0,0
1565103676937.5,213.54,0,0,0,0,0
1565103676953.13,104.35,0,0,0,0,0
1565103676968.75,-19.36,0,0,0,0,0
1565103676984.38,-150.01,0,0,0,0,0
1565103677000,-267.85,0,0,0,0,0
1565103677015.63,-351.02,0,0,0,0,0
1565103677031.25,-388.66,0,0,0,0,0
1565103677046.88,-385.67,0,0,0,0,0
1565103677062.5,-359.82,0,0,0,0,0
1565103677078.13,-333.05,0,0,0,0,0
1565103677093.75,-324.37,0,0,0,0,0
1565103677109.38,-339.79,0,0,0,0,0
1565103677125,-370.99,0,0,0,0,0
1565103677140.63,-403.96,0,0,0,0,0
1565103677156.25,-425.79,0,0,0,0,0
1565103677171.88,-428.78,0,0,0,0,0
1565103677187.5,-410.26,0,0,0,0,0
1565103677203.13,-372.44,0,0,0,0,0
1565103677218.75,-317.25,0,0,0,0,0
1565103677234.38,-250.3,0,0,0,0,0
1565103677250,-179.44,0,0,0,0,0
1565103677265.63,-107.3,0,0,0,0,0
1565103677281.25,-35.8,0,0,0,0,0
1565103677296.88,31.86,0,0,0,0,0
1565103677312.5,92.02,0,0,0,0,0
1565103677328.13,144.6,0,0,0,0,0
1565103677343.75,192.77,0,0,0,0,0
1565103677359.38,242.18,0,0,0,0,0
1565103677375,298.05,0,0,0,0,0
1565103677390.63,361.29,0,0,0,0,0
1565103677406.25,434.21,0,0,0,0,0
1565103677421.88,516.07,0,0,0,0,0
1565103677437.5,601.77,0,0,0,0,0
1565103677453.13,664.94,0,0,0,0,0
1565103677468.75,681.29,0,0,0,0,0
1565103677484.38,637.11,0,0,0,0,0
1565103677500,537.29,0,0,0,0,0
1565103677515.63,425.54,0,0,0,0,0
1565103677531.25,320.44,0,0,0,0,0
1565103677546.88,229.96,0,0,0,0,0
1565103677562.5,155.19,0,0,0,0,0
1565103677578.13,85.97,0,0,0,0,0
1565103677593.75,17.01,0,0,0,0,0
1565103677609.38,-52.94,0,0,0,0,0
1565103677625,-123.21,0,0,0,0,0
1565103677640.63,-192.05,0,0,0,0,0
1565103677656.25,-259.04,0,0,0,0,0
1565103677671.88,-325.37,0,0,0,0,0
1565103677687.5,-386.86,0,0,0,0,0
1565103677703.13,-439.1,0,0,0,0,0
1565103677718.75,-480.94,0,0,0,0,0
1565103677734.38,-513.52,0,0,0,0,0
1565103677750,-538.13,0,0,0,0,0
1565103677765.63,-554.52,0,0,0,0,0
1565103677781.25,-559.61,0,0,0,0,0
1565103677796.88,-557.41,0,0,0,0,0
1565103677812.5,-544.57,0,0,0,0,0
1565103677828.13,-516.38,0,0,0,0,0
1565103677843.75,-472.78,0,0,0,0,0
1565103677859.38,-417.8,0,0,0,0,0
1565103677875,-356.03,0,0,0,0,0
1565103677890.63,-291.73,0,0,0,0,0
1565103677906.25,-227.54,0,0,0,0,0
1565103677921.88,-162.36,0,0,0,0,0
1565103677937.5,-96.74,0,0,0,0,0
1565103677953.13,-31.13,0,0,0,0,0
1565103677968.75,33.8,0,0,0,0,0
1565103677984.38,94.87,0,0,0,0,0
1565103678000,149.61,0,0,0,0,0
1565103678015.63,199.09,0,0,0,0,0
1565103678031.25,245.82,0,0,0,0,0
1565103678046.88,292.84,0,0,0,0,0
1565103678062.5,342.48,0,0,0,0,0
1565103678078.13,395.26,0,0,0,0,0
1565103678093.75,451.73,0,0,0,0,0
1565103678109.38,510.77,0,0,0,0,0
1565103678125,568.74,0,0,0,0,0
1565103678140.63,608.13,0,0,0,0,0
1565103678156.25,617.96,0,0,0,0,0
1565103678171.88,596.11,0,0,0,0,0
1565103678187.5,549.92,0,0,0,0,0
1565103678203.13,490.75,0,0,0,0,0
1565103678218.75,425.49,0,0,0,0,0
1565103678234.38,355.69,0,0,0,0,0
1565103678250,289.98,0,0,0,0,0
1565103678265.63,219.64,0,0,0,0,0
1565103678281.25,139.93,0,0,0,0,0
1565103678296.88,54.89,0,0,0,0,0
1565103678312.5,-27.97,0,0,0,0,0
1565103678328.13,-102.74,0,0,0,0,0
1565103678343.75,-167.6,0,0,0,0,0
1565103678359.38,-226.64,0,0,0,0,0
1565103678375,-282.4,0,0,0,0,0
1565103678390.63,-339.25,0,0,0,0,0
1565103678406.25,-399.5,0,0,0,0,0
1565103678421.88,-459.88,0,0,0,0,0
1565103678437.5,-514.2,0,0,0,0,0
1565103678453.13,-558.53,0,0,0,0,0
1565103678468.75,-592.48,0,0,0,0,0
1565103678484.38,-615.62,0,0,0,0,0
1565103678500,-635.25,0,0,0,0,0
1565103678515.63,-645.8,0,0,0,0,0
1565103678531.25,-640.59,0,0,0,0,0
1565103678546.88,-617.6,0,0,0,0,0
1565103678562.5,-578.78,0,0,0,0,0
1565103678578.13,-529.52,0,0,0,0,0
1565103678593.75,-472.23,0,0,0,0,0
1565103678609.38,-412.71,0,0,0,0,0
1565103678625,-355.05,0,0,0,0,0
1565103678640.63,-300.27,0,0,0,0,0
1565103678656.25,-245.49,0,0,0,0,0
1565103678671.88,-189,0,0,0,0,0
1565103678687.5,-131.45,0,0,0,0,0
1565103678703.13,-73.72,0,0,0,0,0
1565103678718.75,-16.47,0,0,0,0,0
1565103678734.38,39.84,0,0,0,0,0
1565103678750,95.12,0,0,0,0,0
1565103678765.63,148.35,0,0,0,0,0
1565103678781.25,196.55,0,0,0,0,0
1565103678796.88,237.13,0,0,0,0,0
1565103678812.5,267.28,0,0,0,0,0
1565103678828.13,285.84,0,0,0,0,0
1565103678843.75,293.93,0,0,0,0,0
1565103678859.38,293.13,0,0,0,0,0
1565103678875,283.45,0,0,0,0,0
1565103678890.63,266.2,0,0,0,0,0
1565103678906.25,242.92,0,0,0,0,0
1565103678921.88,215.85,0,0,0,0,0
1565103678937.5,188.56,0,0,0,0,0
1565103678953.13,163.86,0,0,0,0,0
1565103678968.75,143.11,0,0,0,0,0
1565103678984.38,125.98,0,0,0,0,0
1565103679000,111.33,0,0,0,0,0
1565103679015.63,98.67,0,0,0,0,0
1565103679031.25,94.83,0,0,0,0,0
1565103679046.88,107.97,0,0,0,0,0
1565103679062.5,143.5,0,0,0,0,0
1565103679078.13,201.16,0,0,0,0,0
1565103679093.75,275.22,0,0,0,0,0
1565103679109.38,358.13,0,0,0,0,0
1565103679125,442.8,0,0,0,0,0
1565103679140.63,523.87,0,0,0,0,0
1565103679156.25,596.39,0,0,0,0,0
1565103679171.88,661.51,0,0,0,0,0
1565103679187.5,718.53,0,0,0,0,0
1565103679203.13,764.41,0,0,0,0,0
1565103679218.75,795.29,0,0,0,0,0
1565103679234.38,809.33,0,0,0,0,0
1565103679250,808.17,0,0,0,0,0
1565103679265.63,795.37,0,0,0,0,0
1565103679281.25,773.7,0,0,0,0,0
1565103679296.88,708.09,0,0,0,0,0
1565103679312.5,582.83,0,0,0,0,0
1565103679328.13,405.7,0,0,0,0,0
1565103679343.75,206.37,0,0,0,0,0
1565103679359.38,19.82,0,0,0,0,0
1565103679375,-130.65,0,0,0,0,0
1565103679390.63,-238.27,0,0,0,0,0
1565103679406.25,-308.37,0,0,0,0,0
1565103679421.88,-348.01,0,0,0,0,0
1565103679437.5,-373.1,0,0,0,0,0
1565103679453.13,-389.58,0,0,0,0,0
1565103679468.75,-399.91,0,0,0,0,0
1565103679484.38,-405.81,0,0,0,0,0
1565103679500,-408.45,0,0,0,0,0
1565103679515.63,-407.78,0,0,0,0,0
1565103679531.25,-401.14,0,0,0,0,0
1565103679546.88,-383.46,0,0,0,0,0
1565103679562.5,-349.98,0,0,0,0,0
1565103679578.13,-300.46,0,0,0,0,0
1565103679593.75,-233.52,0,0,0,0,0
1565103679609.38,-151.41,0,0,0,0,0
1565103679625,-61.7,0,0,0,0,0
1565103679640.63,23.97,0,0,0,0,0
1565103679656.25,92.3,0,0,0,0,0
1565103679671.88,133.35,0,0,0,0,0
1565103679687.5,143.16,0,0,0,0,0
1565103679703.13,123.86,0,0,0,0,0
1565103679718.75,81.35,0,0,0,0,0
1565103679734.38,27.05,0,0,0,0,0
1565103679750,-27.63,0,0,0,0,0
1565103679765.63,-76.46,0,0,0,0,0
1565103679781.25,-119.99,0,0,0,0,0
1565103679796.88,-164.73,0,0,0,0,0
1565103679812.5,-218.09,0,0,0,0,0
1565103679828.13,-281.77,0,0,0,0,0
1565103679843.75,-349.06,0,0,0,0,0
1565103679859.38,-406.99,0,0,0,0,0
1565103679875,-450.05,0,0,0,0,0
1565103679890.63,-472.6,0,0,0,0,0
1565103679906.25,-471.75,0,0,0,0,0
1565103679921.88,-441.69,0,0,0,0,0
1565103679937.5,-384.93,0,0,0,0,0
1565103679953.13,-309.18,0,0,0,0,0
1565103679968.75,-224.94,0,0,0,0,0
1565103679984.38,-144.62,0,0,0,0,0
1565103680000,-81.45,0,0,0,0,0
1565103680015.63,-46.16,0,0,0,0,0
1565103680031.25,-42.15,0,0,0,0,0
1565103680046.88,-65.49,0,0,0,0,0
1565103680062.5,-104.85,0,0,0,0,0
1565103680078.13,-144.97,0,0,0,0,0
1565103680093.75,-169.59,0,0,0,0,0
1565103680109.38,-166.08,0,0,0,0,0
1565103680125,-129.98,0,0,0,0,0
1565103680140.63,-66.02,0,0,0,0,0
1565103680156.25,15.08,0,0,0,0,0
1565103680171.88,103.5,0,0,0,0,0
1565103680187.5,190.78,0,0,0,0,0
1565103680203.13,269.44,0,0,0,0,0
1565103680218.75,331.21,0,0,0,0,0
1565103680234.38,368.45,0,0,0,0,0
1565103680250,377.55,0,0,0,0,0
1565103680265.63,360.16,0,0,0,0,0
1565103680281.25,322.89,0,0,0,0,0
1565103680296.88,274.96,0,0,0,0,0
1565103680312.5,226.4,0,0,0,0,0
1565103680328.13,182.23,0,0,0,0,0
1565103680343.75,139.9,0,0,0,0,0
1565103680359.38,90.74,0,0,0,0,0
1565103680375,22.53,0,0,0,0,0
1565103680390.63,-66.87,0,0,0,0,0
1565103680406.25,-167.06,0,0,0,0,0
1565103680421.88,-259.3,0,0,0,0,0
1565103680437.5,-331.7,0,0,0,0,0
1565103680453.13,-379.48,0,0,0,0,0
1565103680468.75,-402.5,0,0,0,0,0
1565103680484.38,-403.43,0,0,0,0,0
1565103680500,-381.1,0,0,0,0,0
1565103680515.63,-337.23,0,0,0,0,0
1565103680531.25,-275.64,0,0,0,0,0
1565103680546.88,-204.81,0,0,0,0,0
1565103680562.5,-137.95,0,0,0,0,0
1565103680578.13,-90.17,0,0,0,0,0
1565103680593.75,-70.84,0,0,0,0,0
1565103680609.38,-80.59,0,0,0,0,0
1565103680625,-109.78,0,0,0,0,0
1565103680640.63,-141.39,0,0,0,0,0
1565103680656.25,-156.54,0,0,0,0,0
1565103680671.88,-141.16,0,0,0,0,0
1565103680687.5,-92.11,0,0,0,0,0
1565103680703.13,-16.5,0,0,0,0,0
1565103680718.75,72.57,0,0,0,0,0
1565103680734.38,164.21,0,0,0,0,0
1565103680750,250.42,0,0,0,0,0
1565103680765.63,324.8,0,0,0,0,0
1565103680781.25,380.78,0,0,0,0,0
1565103680796.88,413.13,0,0,0,0,0
1565103680812.5,419.59,0,0,0,0,0
1565103680828.13,402.45,0,0,0,0,0
1565103680843.75,368.69,0,0,0,0,0
1565103680859.38,326.99,0,0,0,0,0
1565103680875,285.63,0,0,0,0,0
1565103680890.63,246.51,0,0,0,0,0
1565103680906.25,204.81,0,0,0,0,0
1565103680921.88,144.24,0,0,0,0,0
1565103680937.5,59.79,0,0,0,0,0
1565103680953.13,-38.26,0,0,0,0,0
1565103680968.75,-129.03,0,0,0,0,0
1565103680984.38,-190.79,0,0,0,0,0
1565103681000,-220.68,0,0,0,0,0
1565103681015.63,-223.38,0,0,0,0,0
1565103681031.25,-205.92,0,0,0,0,0
1565103681046.88,-174.74,0,0,0,0,0
1565103681062.5,-136.62,0,0,0,0,0
1565103681078.13,-97.48,0,0,0,0,0
1565103681093.75,-65.08,0,0,0,0,0
1565103681109.38,-48.35,0,0,0,0,0
1565103681125,-53.69,0,0,0,0,0
1565103681140.63,-80.05,0,0,0,0,0
1565103681156.25,-114.29,0,0,0,0,0
1565103681171.88,-137.42,0,0,0,0,0
1565103681187.5,-132.95,0,0,0,0,0
1565103681203.13,-94.02,0,0,0,0,0
1565103681218.75,-22.43,0,0,0,0,0
1565103681234.38,71.99,0,0,0,0,0
1565103681250,175.66,0,0,0,0,0
1565103681265.63,274.7,0,0,0,0,0
1565103681281.25,357.09,0,0,0,0,0
1565103681296.88,415.64,0,0,0,0,0
1565103681312.5,445.12,0,0,0,0,0
1565103681328.13,443.11,0,0,0,0,0
1565103681343.75,410.94,0,0,0,0,0
1565103681359.38,358.44,0,0,0,0,0
1565103681375,299.83,0,0,0,0,0
1565103681390.63,248.53,0,0,0,0,0
1565103681406.25,211.4,0,0,0,0,0
1565103681421.88,178.74,0,0,0,0,0
1565103681437.5,142.63,0,0,0,0,0
1565103681453.13,99.51,0,0,0,0,0
1565103681468.75,62.02,0,0,0,0,0
1565103681484.38,35.23,0,0,0,0,0
1565103681500,19.36,0,0,0,0,0
1565103681515.63,5.84,0,0,0,0,0
1565103681531.25,-14.56,0,0,0,0,0
1565103681546.88,-50.5,0,0,0,0,0
1565103681562.5,-105.95,0,0,0,0,0
1565103681578.13,-175.05,0,0,0,0,0
1565103681593.75,-244.91,0,0,0,0,0
1565103681609.38,-299.74,0,0,0,0,0
1565103681625,-327.34,0,0,0,0,0
1565103681640.63,-320.02,0,0,0,0,0
1565103681656.25,-276.87,0,0,0,0,0
1565103681671.88,-201.88,0,0,0,0,0
1565103681687.5,-104.79,0,0,0,0,0
1565103681703.13,0.06,0,0,0,0,0
1565103681718.75,98.2,0,0,0,0,0
1565103681734.38,176.9,0,0,0,0,0
1565103681750,227.63,0,0,0,0,0
1565103681765.63,246.51,0,0,0,0,0
1565103681781.25,235.7,0,0,0,0,0
1565103681796.88,201,0,0,0,0,0
1565103681812.5,151.7,0,0,0,0,0
1565103681828.13,95.99,0,0,0,0,0
1565103681843.75,37.85,0,0,0,0,0
1565103681859.38,-21.9,0,0,0,0,0
1565103681875,-85.25,0,0,0,0,0
1565103681890.63,-154.72,0,0,0,0,0
1565103681906.25,-227.53,0,0,0,0,0
1565103681921.88,-292.83,0,0,0,0,0
1565103681937.5,-347,0,0,0,0,0
1565103681953.13,-387.15,0,0,0,0,0
1565103681968.75,-405.29,0,0,0,0,0
1565103681984.38,-398.49,0,0,0,0,0
1565103682000,-368.21,0,0,0,0,0
1565103682015.63,-319.28,0,0,0,0,0
1565103682031.25,-258.39,0,0,0,0,0
1565103682046.88,-193.93,0,0,0,0,0
1565103682062.5,-136.3,0,0,0,0,0
1565103682078.13,-96.65,0,0,0,0,0
1565103682093.75,-81.61,0,0,0,0,0
1565103682109.38,-90.71,0,0,0,0,0
1565103682125,-115.75,0,0,0,0,0
1565103682140.63,-142.19,0,0,0,0,0
1565103682156.25,-153.56,0,0,0,0,0
1565103682171.88,-137.52,0,0,0,0,0
1565103682187.5,-90.48,0,0,0,0,0
1565103682203.13,-19.48,0,0,0,0,0
1565103682218.75,63.21,0,0,0,0,0
1565103682234.38,148.15,0,0,0,0,0
1565103682250,231.4,0,0,0,0,0
1565103682265.63,313.07,0,0,0,0,0
1565103682281.25,391.27,0,0,0,0,0
1565103682296.88,460.16,0,0,0,0,0
1565103682312.5,510.81,0,0,0,0,0
1565103682328.13,534.69,0,0,0,0,0
1565103682343.75,525.36,0,0,0,0,0
1565103682359.38,482.93,0,0,0,0,0
1565103682375,415.74,0,0,0,0,0
1565103682390.63,336.55,0,0,0,0,0
1565103682406.25,257.97,0,0,0,0,0
1565103682421.88,184.66,0,0,0,0,0
1565103682437.5,114.9,0,0,0,0,0
1565103682453.13,44.02,0,0,0,0,0
1565103682468.75,-31.68,0,0,0,0,0
1565103682484.38,-116.36,0,0,0,0,0
1565103682500,-211.52,0,0,0,0,0
1565103682515.63,-314.82,0,0,0,0,0
1565103682531.25,-420.26,0,0,0,0,0
1565103682546.88,-517.94,0,0,0,0,0
1565103682562.5,-600.8,0,0,0,0,0
1565103682578.13,-662.14,0,0,0,0,0
1565103682593.75,-695.15,0,0,0,0,0
1565103682609.38,-676.17,0,0,0,0,0
1565103682625,-590.68,0,0,0,0,0
1565103682640.63,-443.46,0,0,0,0,0
1565103682656.25,-262.5,0,0,0,0,0
1565103682671.88,-97.69,0,0,0,0,0
1565103682687.5,29.89,0,0,0,0,0
1565103682703.13,113.43,0,0,0,0,0
1565103682718.75,155.97,0,0,0,0,0
1565103682734.38,164.5,0,0,0,0,0
1565103682750,149.67,0,0,0,0,0
1565103682765.63,120.33,0,0,0,0,0
1565103682781.25,82.37,0,0,0,0,0
1565103682796.88,38.35,0,0,0,0,0
1565103682812.5,-10.75,0,0,0,0,0
1565103682828.13,-58.2,0,0,0,0,0
1565103682843.75,-97.62,0,0,0,0,0
1565103682859.38,-122.37,0,0,0,0,0
1565103682875,-128.83,0,0,0,0,0
1565103682890.63,-120.26,0,0,0,0,0
1565103682906.25,-107.79,0,0,0,0,0
1565103682921.88,-105.33,0,0,0,0,0
1565103682937.5,-118.79,0,0,0,0,0
1565103682953.13,-144.62,0,0,0,0,0
1565103682968.75,-169.87,0,0,0,0,0
1565103682984.38,-184.04,0,0,0,0,0
1565103683000,-180.96,0,0,0,0,0
1565103683015.63,-160.19,0,0,0,0,0
1565103683031.25,-124.85,0,0,0,0,0
1565103683046.88,-80.62,0,0,0,0,0
1565103683062.5,-32.52,0,0,0,0,0
1565103683078.13,17.37,0,0,0,0,0
1565103683093.75,69.47,0,0,0,0,0
1565103683109.38,127.13,0,0,0,0,0
1565103683125,188.63,0,0,0,0,0
1565103683140.63,247.26,0,0,0,0,0
1565103683156.25,293.25,0,0,0,0,0
1565103683171.88,316.4,0,0,0,0,0
1565103683187.5,311.96,0,0,0,0,0
1565103683203.13,282.7,0,0,0,0,0
1565103683218.75,238.6,0,0,0,0,0
1565103683234.38,182.69,0,0,0,0,0
1565103683250,122.8,0,0,0,0,0
1565103683265.63,64.36,0,0,0,0,0
1565103683281.25,9.19,0,0,0,0,0
1565103683296.88,-34.88,0,0,0,0,0
1565103683312.5,-71.47,0,0,0,0,0
1565103683328.13,-103.6,0,0,0,0,0
1565103683343.75,-130.17,0,0,0,0,0
1565103683359.38,-150.28,0,0,0,0,0
1565103683375,-159.62,0,0,0,0,0
1565103683390.63,-153.24,0,0,0,0,0
1565103683406.25,-130.08,0,0,0,0,0
1565103683421.88,-92.62,0,0,0,0,0
1565103683437.5,-45.57,0,0,0,0,0
1565103683453.13,4.73,0,0,0,0,0
1565103683468.75,54.33,0,0,0,0,0
1565103683484.38,100.68,0,0,0,0,0
1565103683500,142.38,0,0,0,0,0
1565103683515.63,179.57,0,0,0,0,0
1565103683531.25,213.86,0,0,0,0,0
1565103683546.88,246.59,0,0,0,0,0
1565103683562.5,279.28,0,0,0,0,0
1565103683578.13,313.84,0,0,0,0,0
1565103683593.75,350.59,0,0,0,0,0
1565103683609.38,388.86,0,0,0,0,0
1565103683625,424.71,0,0,0,0,0
1565103683640.63,451.03,0,0,0,0,0
1565103683656.25,461.61,0,0,0,0,0
1565103683671.88,452.94,0,0,0,0,0
1565103683687.5,425.55,0,0,0,0,0
1565103683703.13,384.4,0,0,0,0,0
1565103683718.75,337.83,0,0,0,0,0
1565103683734.38,293.71,0,0,0,0,0
1565103683750,257.13,0,0,0,0,0
1565103683765.63,227.73,0,0,0,0,0
1565103683781.25,200.79,0,0,0,0,0
1565103683796.88,173.38,0,0,0,0,0
1565103683812.5,145.38,0,0,0,0,0
1565103683828.13,119.83,0,0,0,0,0
1565103683843.75,100.95,0,0,0,0,0
1565103683859.38,90.79,0,0,0,0,0
1565103683875,86.16,0,0,0,0,0
1565103683890.63,79.09,0,0,0,0,0
1565103683906.25,59.24,0,0,0,0,0
1565103683921.88,9.82,0,0,0,0,0
1565103683937.5,-72.67,0,0,0,0,0
1565103683953.13,-177.54,0,0,0,0,0
1565103683968.75,-285.15,0,0,0,0,0
1565103683984.38,-378.55,0,0,0,0,0
1565103684000,-451.82,0,0,0,0,0
1565103684015.63,-508.42,0,0,0,0,0
1565103684031.25,-552.86,0,0,0,0,0
1565103684046.88,-584.25,0,0,0,0,0
1565103684062.5,-600.71,0,0,0,0,0
1565103684078.13,-591.52,0,0,0,0,0
1565103684093.75,-549.8,0,0,0,0,0
1565103684109.38,-479.17,0,0,0,0,0
1565103684125,-393.17,0,0,0,0,0
1565103684140.63,-308.7,0,0,0,0,0
1565103684156.25,-237.94,0,0,0,0,0
1565103684171.88,-184,0,0,0,0,0
1565103684187.5,-141.04,0,0,0,0,0
1565103684203.13,-99.74,0,0,0,0,0
1565103684218.75,-50.38,0,0,0,0,0
1565103684234.38,12.18,0,0,0,0,0
1565103684250,86.13,0,0,0,0,0
1565103684265.63,165.13,0,0,0,0,0
1565103684281.25,242.07,0,0,0,0,0
1565103684296.88,312.44,0,0,0,0,0
1565103684312.5,373.37,0,0,0,0,0
1565103684328.13,421.44,0,0,0,0,0
1565103684343.75,452.56,0,0,0,0,0
1565103684359.38,464.99,0,0,0,0,0
1565103684375,459.82,0,0,0,0,0
1565103684390.63,439.99,0,0,0,0,0
1565103684406.25,409.16,0,0,0,0,0
1565103684421.88,369.82,0,0,0,0,0
1565103684437.5,323.04,0,0,0,0,0
1565103684453.13,267.66,0,0,0,0,0
1565103684468.75,202.17,0,0,0,0,0
1565103684484.38,128.22,0,0,0,0,0
1565103684500,47.36,0,0,0,0,0
1565103684515.63,-29.3,0,0,0,0,0
1565103684531.25,-88.77,0,0,0,0,0
1565103684546.88,-124.63,0,0,0,0,0
1565103684562.5,-148.38,0,0,0,0,0
1565103684578.13,-177.04,0,0,0,0,0
1565103684593.75,-223.01,0,0,0,0,0
1565103684609.38,-289.08,0,0,0,0,0
1565103684625,-367.28,0,0,0,0,0
1565103684640.63,-441.21,0,0,0,0,0
1565103684656.25,-492.02,0,0,0,0,0
1565103684671.88,-507.44,0,0,0,0,0
1565103684687.5,-485.71,0,0,0,0,0
1565103684703.13,-435.36,0,0,0,0,0
1565103684718.75,-369.59,0,0,0,0,0
1565103684734.38,-300.81,0,0,0,0,0
1565103684750,-235.67,0,0,0,0,0
1565103684765.63,-173.79,0,0,0,0,0
1565103684781.25,-109.49,0,0,0,0,0
1565103684796.88,-35.52,0,0,0,0,0
1565103684812.5,50.61,0,0,0,0,0
1565103684828.13,144.45,0,0,0,0,0
1565103684843.75,235.07,0,0,0,0,0
1565103684859.38,310.42,0,0,0,0,0
1565103684875,361.3,0,0,0,0,0
1565103684890.63,385.25,0,0,0,0,0
1565103684906.25,385.28,0,0,0,0,0
1565103684921.88,368.07,0,0,0,0,0
1565103684937.5,341.71,0,0,0,0,0
1565103684953.13,312.14,0,0,0,0,0
1565103684968.75,282.57,0,0,0,0,0
1565103684984.38,252.77,0,0,0,0,0
1565103685000,221.21,0,0,0,0,0
1565103685015.63,186.14,0,0,0,0,0
1565103685031.25,147.29,0,0,0,0,0
1565103685046.88,103.46,0,0,0,0,0
1565103685062.5,52.3,0,0,0,0,0
1565103685078.13,-8.67,0,0,0,0,0
1565103685093.75,-81.71,0,0,0,0,0
1565103685109.38,-161.26,0,0,0,0,0
1565103685125,-234.34,0,0,0,0,0
1565103685140.63,-283.69,0,0,0,0,0
1565103685156.25,-303.41,0,0,0,0,0
1565103685171.88,-294.65,0,0,0,0,0
1565103685187.5,-267.87,0,0,0,0,0
1565103685203.13,-239.99,0,0,0,0,0
1565103685218.75,-224.17,0,0,0,0,0
1565103685234.38,-229.62,0,0,0,0,0
1565103685250,-254.6,0,0,0,0,0
1565103685265.63,-287.39,0,0,0,0,0
1565103685281.25,-309.78,0,0,0,0,0
1565103685296.88,-304.5,0,0,0,0,0
1565103685312.5,-255.41,0,0,0,0,0
1565103685328.13,-163,0,0,0,0,0
1565103685343.75,-45.72,0,0,0,0,0
1565103685359.38,67.33,0,0,0,0,0
1565103685375,151.3,0,0,0,0,0
1565103685390.63,199.29,0,0,0,0,0
1565103685406.25,213.37,0,0,0,0,0
1565103685421.88,200.09,0,0,0,0,0
1565103685437.5,164.08,0,0,0,0,0
1565103685453.13,115.48,0,0,0,0,0
1565103685468.75,65.92,0,0,0,0,0
1565103685484.38,26.93,0,0,0,0,0
1565103685500,7.66,0,0,0,0,0
1565103685515.63,12.02,0,0,0,0,0
1565103685531.25,37.06,0,0,0,0,0
1565103685546.88,71.43,0,0,0,0,0
1565103685562.5,101.54,0,0,0,0,0
1565103685578.13,117.47,0,0,0,0,0
1565103685593.75,117.01,0,0,0,0,0
1565103685609.38,101.99,0,0,0,0,0
1565103685625,76.71,0,0,0,0,0
1565103685640.63,46.85,0,0,0,0,0
1565103685656.25,18.56,0,0,0,0,0
1565103685671.88,-2.57,0,0,0,0,0
1565103685687.5,-13.29,0,0,0,0,0
1565103685703.13,-12.78,0,0,0,0,0
1565103685718.75,-2.65,0,0,0,0,0
1565103685734.38,13.16,0,0,0,0,0
1565103685750,28.61,0,0,0,0,0
1565103685765.63,38.07,0,0,0,0,0
1565103685781.25,38.56,0,0,0,0,0
1565103685796.88,31.07,0,0,0,0,0
1565103685812.5,19.99,0,0,0,0,0
1565103685828.13,10.66,0,0,0,0,0
1565103685843.75,7.98,0,0,0,0,0
1565103685859.38,14.45,0,0,0,0,0
1565103685875,29.4,0,0,0,0,0
1565103685890.63,48.37,0,0,0,0,0
1565103685906.25,65.1,0,0,0,0,0
1565103685921.88,73.24,0,0,0,0,0
1565103685937.5,69.4,0,0,0,0,0
1565103685953.13,54.03,0,0,0,0,0
1565103685968.75,30.89,0,0,0,0,0
1565103685984.38,5.53,0,0,0,0,0
1565103686000,-16.97,0,0,0,0,0
1565103686015.63,-33.85,0,0,0,0,0
1565103686031.25,-45.54,0,0,0,0,0
1565103686046.88,-54.51,0,0,0,0,0
1565103686062.5,-63.37,0,0,0,0,0
1565103686078.13,-73.04,0,0,0,0,0
1565103686093.75,-82.57,0,0,0,0,0
1565103686109.38,-89.92,0,0,0,0,0
1565103686125,-93.23,0,0,0,0,0
1565103686140.63,-91.81,0,0,0,0,0
1565103686156.25,-86.28,0,0,0,0,0
1565103686171.88,-78.09,0,0,0,0,0
1565103686187.5,-68.51,0,0,0,0,0
1565103686203.13,-58.09,0,0,0,0,0
1565103686218.75,-46.64,0,0,0,0,0
1565103686234.38,-33.92,0,0,0,0,0
1565103686250,-20.15,0,0,0,0,0
1565103686265.63,-6.28,0,0,0,0,0
1565103686281.25,6.25,0,0,0,0,0
1565103686296.88,16.11,0,0,0,0,0
1565103686312.5,22.58,0,0,0,0,0
1565103686328.13,25.8,0,0,0,0,0
1565103686343.75,26.67,0,0,0,0,0
1565103686359.38,26.48,0,0,0,0,0
1565103686375,26.35,0,0,0,0,0
1565103686390.63,26.95,0,0,0,0,0
1565103686406.25,28.19,0,0,0,0,0
1565103686421.88,29.48,0,0,0,0,0
1565103686437.5,29.97,0,0,0,0,0
1565103686453.13,28.96,0,0,0,0,0
1565103686468.75,26.26,0,0,0,0,0
1565103686484.38,22.17,0,0,0,0,0
1565103686500,17.36,0,0,0,0,0
1565103686515.63,12.6,0,0,0,0,0
1565103686531.25,8.38,0,0,0,0,0
1565103686546.88,4.91,0,0,0,0,0
1565103686562.5,2.14,0,0,0,0,0
1565103686578.13,0.06,0,0,0,0,0
1565103686593.75,-1.25,0,0,0,0,0
1565103686609.38,-1.57,0,0,0,0,0
1565103686625,-0.73,0,0,0,0,0
1565103686640.63,1.23,0,0,0,0,0
1565103686656.25,4.05,0,0,0,0,0
1565103686671.88,7.28,0,0,0,0,0
1565103686687.5,10.4,0,0,0,0,0
1565103686703.13,12.95,0,0,0,0,0
1565103686718.75,14.58,0,0,0,0,0
1565103686734.38,15.01,0,0,0,0,0
1565103686750,13.99,0,0,0,0,0
1565103686765.63,11.49,0,0,0,0,0
1565103686781.25,7.64,0,0,0,0,0
1565103686796.88,2.85,0,0,0,0,0
1565103686812.5,-2.18,0,0,0,0,0
1565103686828.13,-6.7,0,0,0,0,0
1565103686843.75,-10.03,0,0,0,0,0
1565103686859.38,-11.91,0,0,0,0,0
1565103686875,-12.54,0,0,0,0,0
1565103686890.63,-12.44,0,0,0,0,0
1565103686906.25,-12.36,0,0,0,0,0
1565103686921.88,-12.77,0,0,0,0,0
1565103686937.5,-13.69,0,0,0,0,0
1565103686953.13,-14.63,0,0,0,0,0
1565103686968.75,-14.69,0,0,0,0,0
1565103686984.38,-12.97,0,0,0,0,0
1565103687000,-8.95,0,0,0,0,0
1565103687015.63,-2.71,0,0,0,0,0
1565103687031.25,5.13,0,0,0,0,0
1565103687046.88,13.58,0,0,0,0,0
1565103687062.5,21.85,0,0,0,0,0
1565103687078.13,29.58,0,0,0,0,0
1565103687093.75,36.99,0,0,0,0,0
1565103687109.38,44.66,0,0,0,0,0
1565103687125,53.18,0,0,0,0,0
1565103687140.63,62.67,0,0,0,0,0
1565103687156.25,72.5,0,0,0,0,0
1565103687171.88,81.41,0,0,0,0,0
1565103687187.5,87.84,0,0,0,0,0
1565103687203.13,90.81,0,0,0,0,0
1565103687218.75,90.46,0,0,0,0,0
1565103687234.38,88.31,0,0,0,0,0
1565103687250,86.79,0,0,0,0,0
1565103687265.63,88.4,0,0,0,0,0
1565103687281.25,94.59,0,0,0,0,0
1565103687296.88,104.97,0,0,0,0,0
1565103687312.5,117.33,0,0,0,0,0
1565103687328.13,128.17,0,0,0,0,0
1565103687343.75,134.64,0,0,0,0,0
1565103687359.38,135.75,0,0,0,0,0
1565103687375,132.97,0,0,0,0,0
1565103687390.63,129.5,0,0,0,0,0
1565103687406.25,128.92,0,0,0,0,0
1565103687421.88,133.24,0,0,0,0,0
1565103687437.5,141.6,0,0,0,0,0
1565103687453.13,150.12,0,0,0,0,0
1565103687468.75,152.37,0,0,0,0,0
1565103687484.38,141.91,0,0,0,0,0
1565103687500,114.03,0,0,0,0,0
1565103687515.63,66.96,0,0,0,0,0
1565103687531.25,2.83,0,0,0,0,0
1565103687546.88,-71.73,0,0,0,0,0
1565103687562.5,-146.01,0,0,0,0,0
1565103687578.13,-207.22,0,0,0,0,0
1565103687593.75,-244.12,0,0,0,0,0
1565103687609.38,-252.42,0,0,0,0,0
1565103687625,-236.58,0,0,0,0,0
1565103687640.63,-210.17,0,0,0,0,0
1565103687656.25,-191.9,0,0,0,0,0
1565103687671.88,-198.47,0,0,0,0,0
1565103687687.5,-237.56,0,0,0,0,0
1565103687703.13,-304.32,0,0,0,0,0
1565103687718.75,-383.36,0,0,0,0,0
1565103687734.38,-454.94,0,0,0,0,0
1565103687750,-503.32,0,0,0,0,0
1565103687765.63,-519.67,0,0,0,0,0
1565103687781.25,-503.07,0,0,0,0,0
1565103687796.88,-458.38,0,0,0,0,0
1565103687812.5,-393.06,0,0,0,0,0
1565103687828.13,-315.4,0,0,0,0,0
1565103687843.75,-234.52,0,0,0,0,0
1565103687859.38,-160.73,0,0,0,0,0
1565103687875,-97.41,0,0,0,0,0
1565103687890.63,-50.81,0,0,0,0,0
1565103687906.25,-24.05,0,0,0,0,0
1565103687921.88,-14.14,0,0,0,0,0
1565103687937.5,-11.7,0,0,0,0,0
1565103687953.13,-3.89,0,0,0,0,0
1565103687968.75,20.57,0,0,0,0,0
1565103687984.38,66.07,0,0,0,0,0
1565103688000,127.58,0,0,0,0,0
1565103688015.63,192.3,0,0,0,0,0
1565103688031.25,243.02,0,0,0,0,0
1565103688046.88,266.51,0,0,0,0,0
1565103688062.5,259.46,0,0,0,0,0
1565103688078.13,227.87,0,0,0,0,0
1565103688093.75,183.51,0,0,0,0,0
1565103688109.38,139.21,0,0,0,0,0
1565103688125,103.96,0,0,0,0,0
1565103688140.63,79.9,0,0,0,0,0
1565103688156.25,63.4,0,0,0,0,0
1565103688171.88,48.63,0,0,0,0,0
1565103688187.5,35.27,0,0,0,0,0
1565103688203.13,26.1,0,0,0,0,0
1565103688218.75,23.9,0,0,0,0,0
1565103688234.38,28.54,0,0,0,0,0
1565103688250,35.73,0,0,0,0,0
1565103688265.63,42.08,0,0,0,0,0
1565103688281.25,45.33,0,0,0,0,0
1565103688296.88,44.73,0,0,0,0,0
1565103688312.5,40.18,0,0,0,0,0
1565103688328.13,31.56,0,0,0,0,0
1565103688343.75,17.65,0,0,0,0,0
1565103688359.38,-4.66,0,0,0,0,0
1565103688375,-36.88,0,0,0,0,0
1565103688390.63,-75.29,0,0,0,0,0
1565103688406.25,-108.46,0,0,0,0,0
1565103688421.88,-119.75,0,0,0,0,0
1565103688437.5,-95.08,0,0,0,0,0
1565103688453.13,-33.44,0,0,0,0,0
1565103688468.75,48.93,0,0,0,0,0
1565103688484.38,131.56,0,0,0,0,0
1565103688500,195.61,0,0,0,0,0
1565103688515.63,229.94,0,0,0,0,0
1565103688531.25,234.61,0,0,0,0,0
1565103688546.88,215.42,0,0,0,0,0
1565103688562.5,183.77,0,0,0,0,0
1565103688578.13,151.69,0,0,0,0,0
1565103688593.75,126.36,0,0,0,0,0
1565103688609.38,109.34,0,0,0,0,0
1565103688625,96.84,0,0,0,0,0
1565103688640.63,84.64,0,0,0,0,0
1565103688656.25,69.09,0,0,0,0,0
1565103688671.88,48.11,0,0,0,0,0
1565103688687.5,24.5,0,0,0,0,0
1565103688703.13,-3.03,0,0,0,0,0
1565103688718.75,-39.04,0,0,0,0,0
1565103688734.38,-88.76,0,0,0,0,0
1565103688750,-154.32,0,0,0,0,0
1565103688765.63,-230.22,0,0,0,0,0
1565103688781.25,-305.62,0,0,0,0,0
1565103688796.88,-368.03,0,0,0,0,0
1565103688812.5,-406.05,0,0,0,0,0
1565103688828.13,-411.63,0,0,0,0,0
1565103688843.75,-383.05,0,0,0,0,0
1565103688859.38,-325.35,0,0,0,0,0
1565103688875,-247.91,0,0,0,0,0
1565103688890.63,-161.59,0,0,0,0,0
1565103688906.25,-73.66,0,0,0,0,0
1565103688921.88,11.92,0,0,0,0,0
1565103688937.5,93.12,0,0,0,0,0
1565103688953.13,167.47,0,0,0,0,0
1565103688968.75,231.44,0,0,0,0,0
1565103688984.38,279.38,0,0,0,0,0
1565103689000,306.58,0,0,0,0,0
1565103689015.63,312.44,0,0,0,0,0
1565103689031.25,300.73,0,0,0,0,0
1565103689046.88,279.5,0,0,0,0,0
1565103689062.5,255.37,0,0,0,0,0
1565103689078.13,230.44,0,0,0,0,0
1565103689093.75,195.77,0,0,0,0,0
1565103689109.38,146.8,0,0,0,0,0
1565103689125,87.11,0,0,0,0,0
1565103689140.63,27.97,0,0,0,0,0
1565103689156.25,-14.45,0,0,0,0,0
1565103689171.88,-39.8,0,0,0,0,0
1565103689187.5,-55.84,0,0,0,0,0
1565103689203.13,-72.02,0,0,0,0,0
1565103689218.75,-95.16,0,0,0,0,0
1565103689234.38,-123.57,0,0,0,0,0
1565103689250,-146.96,0,0,0,0,0
1565103689265.63,-153.79,0,0,0,0,0
1565103689281.25,-138.31,0,0,0,0,0
1565103689296.88,-104.52,0,0,0,0,0
1565103689312.5,-65.67,0,0,0,0,0
1565103689328.13,-35.57,0,0,0,0,0
1565103689343.75,-21.76,0,0,0,0,0
1565103689359.38,-23.07,0,0,0,0,0
1565103689375,-31.31,0,0,0,0,0
1565103689390.63,-35.96,0,0,0,0,0
1565103689406.25,-30.13,0,0,0,0,0
1565103689421.88,-12.25,0,0,0,0,0
1565103689437.5,16.44,0,0,0,0,0
1565103689453.13,53.52,0,0,0,0,0
1565103689468.75,98.19,0,0,0,0,0
1565103689484.38,151.07,0,0,0,0,0
1565103689500,211.37,0,0,0,0,0
1565103689515.63,275.11,0,0,0,0,0
1565103689531.25,335.27,0,0,0,0,0
1565103689546.88,382.83,0,0,0,0,0
1565103689562.5,409.52,0,0,0,0,0
1565103689578.13,410.97,0,0,0,0,0
1565103689593.75,386.94,0,0,0,0,0
1565103689609.38,341.94,0,0,0,0,0
1565103689625,285.29,0,0,0,0,0
1565103689640.63,227.96,0,0,0,0,0
1565103689656.25,177.78,0,0,0,0,0
1565103689671.88,135.4,0,0,0,0,0
1565103689687.5,93.11,0,0,0,0,0
1565103689703.13,35.16,0,0,0,0,0
1565103689718.75,-46.11,0,0,0,0,0
1565103689734.38,-141.44,0,0,0,0,0
1565103689750,-236.64,0,0,0,0,0
1565103689765.63,-314.5,0,0,0,0,0
1565103689781.25,-359.1,0,0,0,0,0
1565103689796.88,-363.3,0,0,0,0,0
1565103689812.5,-331.24,0,0,0,0,0
1565103689828.13,-275.45,0,0,0,0,0
1565103689843.75,-209.93,0,0,0,0,0
1565103689859.38,-145.15,0,0,0,0,0
1565103689875,-87.03,0,0,0,0,0
1565103689890.63,-38.45,0,0,0,0,0
1565103689906.25,-0.92,0,0,0,0,0
1565103689921.88,25.55,0,0,0,0,0
1565103689937.5,44.09,0,0,0,0,0
1565103689953.13,60.79,0,0,0,0,0
1565103689968.75,79.6,0,0,0,0,0
1565103689984.38,99.94,0,0,0,0,0
1565103690000,115.02,0,0,0,0,0
1565103690015.63,116.25,0,0,0,0,0
1565103690031.25,102.14,0,0,0,0,0
1565103690046.88,76.41,0,0,0,0,0
1565103690062.5,47.39,0,0,0,0,0
1565103690078.13,23.75,0,0,0,0,0
1565103690093.75,10.57,0,0,0,0,0
1565103690109.38,6.32,0,0,0,0,0
1565103690125,7.34,0,0,0,0,0
1565103690140.63,7.57,0,0,0,0,0
1565103690156.25,1.73,0,0,0,0,0
1565103690171.88,-13.44,0,0,0,0,0
1565103690187.5,-37.77,0,0,0,0,0
1565103690203.13,-66.61,0,0,0,0,0
1565103690218.75,-93.75,0,0,0,0,0
1565103690234.38,-115.44,0,0,0,0,0
1565103690250,-135,0,0,0,0,0
1565103690265.63,-158.28,0,0,0,0,0
1565103690281.25,-194.31,0,0,0,0,0
1565103690296.88,-248.15,0,0,0,0,0
1565103690312.5,-315.64,0,0,0,0,0
1565103690328.13,-382.76,0,0,0,0,0
1565103690343.75,-429.25,0,0,0,0,0
1565103690359.38,-437.02,0,0,0,0,0
1565103690375,-389.88,0,0,0,0,0
1565103690390.63,-304.44,0,0,0,0,0
1565103690406.25,-195.94,0,0,0,0,0
1565103690421.88,-86.05,0,0,0,0,0
1565103690437.5,5.45,0,0,0,0,0
1565103690453.13,67.07,0,0,0,0,0
1565103690468.75,98.15,0,0,0,0,0
1565103690484.38,107.54,0,0,0,0,0
1565103690500,108.64,0,0,0,0,0
1565103690515.63,113.84,0,0,0,0,0
1565103690531.25,129.3,0,0,0,0,0
1565103690546.88,159.07,0,0,0,0,0
1565103690562.5,200.46,0,0,0,0,0
1565103690578.13,246.97,0,0,0,0,0
1565103690593.75,290.73,0,0,0,0,0
1565103690609.38,324.06,0,0,0,0,0
1565103690625,340.67,0,0,0,0,0
1565103690640.63,336.3,0,0,0,0,0
1565103690656.25,309.35,0,0,0,0,0
1565103690671.88,254.23,0,0,0,0,0
1565103690687.5,177.83,0,0,0,0,0
1565103690703.13,94.34,0,0,0,0,0
1565103690718.75,20.25,0,0,0,0,0
1565103690734.38,-33.19,0,0,0,0,0
1565103690750,-62.87,0,0,0,0,0
1565103690765.63,-72.03,0,0,0,0,0
1565103690781.25,-66.87,0,0,0,0,0
1565103690796.88,-54.27,0,0,0,0,0
1565103690812.5,-40.94,0,0,0,0,0
1565103690828.13,-29.77,0,0,0,0,0
1565103690843.75,-22.95,0,0,0,0,0
1565103690859.38,-21.06,0,0,0,0,0
1565103690875,-22.96,0,0,0,0,0
1565103690890.63,-26.01,0,0,0,0,0
1565103690906.25,-27.34,0,0,0,0,0
1565103690921.88,-25.04,0,0,0,0,0
1565103690937.5,-19.2,0,0,0,0,0
1565103690953.13,-11.87,0,0,0,0,0
1565103690968.75,-4.27,0,0,0,0,0
1565103690984.38,2.07,0,0,0,0,0
1565103691000,6.12,0,0,0,0,0
1565103691015.63,7.82,0,0,0,0,0
1565103691031.25,8.25,0,0,0,0,0
1565103691046.88,9.1,0,0,0,0,0
1565103691062.5,11.74,0,0,0,0,0
1565103691078.13,16.57,0,0,0,0,0
1565103691093.75,22.75,0,0,0,0,0
1565103691109.38,29.63,0,0,0,0,0
1565103691125,36.04,0,0,0,0,0
1565103691140.63,40.79,0,0,0,0,0
1565103691156.25,43,0,0,0,0,0
1565103691171.88,42.75,0,0,0,0,0
1565103691187.5,40.75,0,0,0,0,0
1565103691203.13,37.95,0,0,0,0,0
1565103691218.75,35.1,0,0,0,0,0
1565103691234.38,32.34,0,0,0,0,0
1565103691250,29.92,0,0,0,0,0
1565103691265.63,27.89,0,0,0,0,0
1565103691281.25,26.25,0,0,0,0,0
1565103691296.88,25.11,0,0,0,0,0
1565103691312.5,24.89,0,0,0,0,0
1565103691328.13,26.19,0,0,0,0,0
1565103691343.75,29.59,0,0,0,0,0
1565103691359.38,35.45,0,0,0,0,0
1565103691375,43.37,0,0,0,0,0
1565103691390.63,52.9,0,0,0,0,0
1565103691406.25,63.46,0,0,0,0,0
1565103691421.88,74.38,0,0,0,0,0
1565103691437.5,85.16,0,0,0,0,0
1565103691453.13,95.54,0,0,0,0,0
1565103691468.75,105.53,0,0,0,0,0
1565103691484.38,115.39,0,0,0,0,0
1565103691500,125.53,0,0,0,0,0
1565103691515.63,135.85,0,0,0,0,0
1565103691531.25,146.35,0,0,0,0,0
1565103691546.88,157.11,0,0,0,0,0
1565103691562.5,168.13,0,0,0,0,0
1565103691578.13,179.23,0,0,0,0,0
1565103691593.75,190.07,0,0,0,0,0
1565103691609.38,199.96,0,0,0,0,0
1565103691625,207.7,0,0,0,0,0
1565103691640.63,215.34,0,0,0,0,0
1565103691656.25,223.06,0,0,0,0,0
1565103691671.88,230.66,0,0,0,0,0
1565103691687.5,237.75,0,0,0,0,0
1565103691703.13,243.76,0,0,0,0,0
1565103691718.75,248.12,0,0,0,0,0
1565103691734.38,250.26,0,0,0,0,0
1565103691750,249.78,0,0,0,0,0
1565103691765.63,246.4,0,0,0,0,0
1565103691781.25,240.13,0,0,0,0,0
1565103691796.88,230.71,0,0,0,0,0
1565103691812.5,218.24,0,0,0,0,0
1565103691828.13,203.14,0,0,0,0,0
1565103691843.75,185.94,0,0,0,0,0
1565103691859.38,167.28,0,0,0,0,0
1565103691875,147.84,0,0,0,0,0
1565103691890.63,128.17,0,0,0,0,0
1565103691906.25,108.76,0,0,0,0,0
1565103691921.88,89.98,0,0,0,0,0
1565103691937.5,71.61,0,0,0,0,0
1565103691953.13,53.48,0,0,0,0,0
1565103691968.75,35.41,0,0,0,0,0
1565103691984.38,17.25,0,0,0,0,0
1565103692000,-1.1,0,0,0,0,0
1565103692015.63,-19.55,0,0,0,0,0
1565103692031.25,-37.96,0,0,0,0,0
1565103692046.88,-55.96,0,0,0,0,0
1565103692062.5,-73.04,0,0,0,0,0
1565103692078.13,-88.88,0,0,0,0,0
1565103692093.75,-103.01,0,0,0,0,0
1565103692109.38,-114.93,0,0,0,0,0
1565103692125,-124.24,0,0,0,0,0
1565103692140.63,-130.69,0,0,0,0,0
1565103692156.25,-134.23,0,0,0,0,0
1565103692171.88,-135.08,0,0,0,0,0
1565103692187.5,-133.6,0,0,0,0,0
1565103692203.13,-130.25,0,0,0,0,0
1565103692218.75,-125.67,0,0,0,0,0
1565103692234.38,-120.34,0,0,0,0,0
1565103692250,-114.62,0,0,0,0,0
1565103692265.63,-108.68,0,0,0,0,0
1565103692281.25,-102.6,0,0,0,0,0
1565103692296.88,-96.41,0,0,0,0,0
1565103692312.5,-90.14,0,0,0,0,0
1565103692328.13,-83.85,0,0,0,0,0
1565103692343.75,-77.66,0,0,0,0,0
1565103692359.38,-71.71,0,0,0,0,0
1565103692375,-66.09,0,0,0,0,0
1565103692390.63,-60.78,0,0,0,0,0
1565103692406.25,-55.74,0,0,0,0,0
1565103692421.88,-50.98,0,0,0,0,0
1565103692437.5,-46.66,0,0,0,0,0
1565103692453.13,-43.21,0,0,0,0,0
1565103692468.75,-41.25,0,0,0,0,0
1565103692484.38,-41.52,0,0,0,0,0
1565103692500,-44.56,0,0,0,0,0
1565103692515.63,-50.58,0,0,0,0,0
1565103692531.25,-59.29,0,0,0,0,0
1565103692546.88,-70,0,0,0,0,0
1565103692562.5,-81.92,0,0,0,0,0
1565103692578.13,-94.4,0,0,0,0,0
1565103692593.75,-107.28,0,0,0,0,0
1565103692609.38,-120.8,0,0,0,0,0
1565103692625,-135.35,0,0,0,0,0
1565103692640.63,-151.12,0,0,0,0,0
1565103692656.25,-167.62,0,0,0,0,0
1565103692671.88,-183.66,0,0,0,0,0
1565103692687.5,-197.55,0,0,0,0,0
1565103692703.13,-207.64,0,0,0,0,0
1565103692718.75,-213.07,0,0,0,0,0
1565103692734.38,-214.17,0,0,0,0,0
1565103692750,-212.45,0,0,0,0,0
1565103692765.63,-210.17,0,0,0,0,0
1565103692781.25,-209.56,0,0,0,0,0
1565103692796.88,-212.06,0,0,0,0,0
1565103692812.5,-217.99,0,0,0,0,0
1565103692828.13,-226.89,0,0,0,0,0
1565103692843.75,-238.04,0,0,0,0,0
1565103692859.38,-251.17,0,0,0,0,0
1565103692875,-266.83,0,0,0,0,0
1565103692890.63,-286.34,0,0,0,0,0
1565103692906.25,-311.42,0,0,0,0,0
1565103692921.88,-343.82,0,0,0,0,0
1565103692937.5,-385,0,0,0,0,0
1565103692953.13,-435.63,0,0,0,0,0
1565103692968.75,-494.69,0,0,0,0,0
1565103692984.38,-558.44,0,0,0,0,0
1565103693000,-620.04,0,0,0,0,0
1565103693015.63,-670.51,0,0,0,0,0
1565103693031.25,-701.09,0,0,0,0,0
1565103693046.88,-706.19,0,0,0,0,0
1565103693062.5,-685.43,0,0,0,0,0
1565103693078.13,-643.65,0,0,0,0,0
1565103693093.75,-588.81,0,0,0,0,0
1565103693109.38,-528.81,0,0,0,0,0
1565103693125,-469.09,0,0,0,0,0
1565103693140.63,-411.9,0,0,0,0,0
1565103693156.25,-357.45,0,0,0,0,0
1565103693171.88,-305.72,0,0,0,0,0
1565103693187.5,-257.53,0,0,0,0,0
1565103693203.13,-214.32,0,0,0,0,0
1565103693218.75,-176.93,0,0,0,0,0
1565103693234.38,-144.53,0,0,0,0,0
1565103693250,-114.56,0,0,0,0,0
1565103693265.63,-83.87,0,0,0,0,0
1565103693281.25,-50.31,0,0,0,0,0
1565103693296.88,-13.81,0,0,0,0,0
1565103693312.5,23.75,0,0,0,0,0
1565103693328.13,59.46,0,0,0,0,0
1565103693343.75,91.03,0,0,0,0,0
1565103693359.38,117.95,0,0,0,0,0
1565103693375,141.81,0,0,0,0,0
1565103693390.63,165.67,0,0,0,0,0
1565103693406.25,192.94,0,0,0,0,0
1565103693421.88,226.41,0,0,0,0,0
1565103693437.5,267.52,0,0,0,0,0
1565103693453.13,315.91,0,0,0,0,0
1565103693468.75,369.03,0,0,0,0,0
1565103693484.38,421.97,0,0,0,0,0
1565103693500,467.96,0,0,0,0,0
1565103693515.63,499.91,0,0,0,0,0
1565103693531.25,512.69,0,0,0,0,0
1565103693546.88,505.29,0,0,0,0,0
1565103693562.5,481.6,0,0,0,0,0
1565103693578.13,449.19,0,0,0,0,0
1565103693593.75,416.44,0,0,0,0,0
1565103693609.38,389.59,0,0,0,0,0
1565103693625,371.02,0,0,0,0,0
1565103693640.63,359.54,0,0,0,0,0
1565103693656.25,352.27,0,0,0,0,0
1565103693671.88,346.71,0,0,0,0,0
1565103693687.5,341.76,0,0,0,0,0
1565103693703.13,337.45,0,0,0,0,0
1565103693718.75,333.74,0,0,0,0,0
1565103693734.38,329.64,0,0,0,0,0
1565103693750,323.19,0,0,0,0,0
1565103693765.63,312.3,0,0,0,0,0
1565103693781.25,295.81,0,0,0,0,0
1565103693796.88,274.04,0,0,0,0,0
1565103693812.5,248.64,0,0,0,0,0
1565103693828.13,221.96,0,0,0,0,0
1565103693843.75,196.06,0,0,0,0,0
1565103693859.38,172.16,0,0,0,0,0
1565103693875,150.51,0,0,0,0,0
1565103693890.63,130.68,0,0,0,0,0
1565103693906.25,112.09,0,0,0,0,0
1565103693921.88,94.41,0,0,0,0,0
1565103693937.5,77.66,0,0,0,0,0
1565103693953.13,61.98,0,0,0,0,0
1565103693968.75,47.22,0,0,0,0,0
1565103693984.38,32.68,0,0,0,0,0
1565103694000,17.25,0,0,0,0,0
1565103694015.63,-0.13,0,0,0,0,0
1565103694031.25,-19.76,0,0,0,0,0
1565103694046.88,-40.88,0,0,0,0,0
1565103694062.5,-61.87,0,0,0,0,0
1565103694078.13,-80.92,0,0,0,0,0
1565103694093.75,-97.06,0,0,0,0,0
1565103694109.38,-110.59,0,0,0,0,0
1565103694125,-123.09,0,0,0,0,0
1565103694140.63,-136.61,0,0,0,0,0
1565103694156.25,-152.81,0,0,0,0,0
1565103694171.88,-172.11,0,0,0,0,0
1565103694187.5,-193.6,0,0,0,0,0
1565103694203.13,-215.47,0,0,0,0,0
1565103694218.75,-235.68,0,0,0,0,0
1565103694234.38,-252.58,0,0,0,0,0
1565103694250,-265.16,0,0,0,0,0
1565103694265.63,-272.98,0,0,0,0,0
1565103694281.25,-275.89,0,0,0,0,0
1565103694296.88,-273.91,0,0,0,0,0
1565103694312.5,-267.21,0,0,0,0,0
1565103694328.13,-256.2,0,0,0,0,0
1565103694343.75,-241.61,0,0,0,0,0
1565103694359.38,-224.48,0,0,0,0,0
1565103694375,-205.98,0,0,0,0,0
1565103694390.63,-187.38,0,0,0,0,0
1565103694406.25,-170.03,0,0,0,0,0
1565103694421.88,-155.36,0,0,0,0,0
1565103694437.5,-144.88,0,0,0,0,0
1565103694453.13,-139.9,0,0,0,0,0
1565103694468.75,-141.11,0,0,0,0,0
1565103694484.38,-147.92,0,0,0,0,0
1565103694500,-158.11,0,0,0,0,0
1565103694515.63,-167.94,0,0,0,0,0
1565103694531.25,-172.68,0,0,0,0,0
1565103694546.88,-167.93,0,0,0,0,0
1565103694562.5,-151.22,0,0,0,0,0
1565103694578.13,-123.38,0,0,0,0,0
1565103694593.75,-89.02,0,0,0,0,0
1565103694609.38,-55.59,0,0,0,0,0
1565103694625,-31.18,0,0,0,0,0
1565103694640.63,-21.84,0,0,0,0,0
1565103694656.25,-29.79,0,0,0,0,0
1565103694671.88,-53.17,0,0,0,0,0
1565103694687.5,-87.32,0,0,0,0,0
1565103694703.13,-126.82,0,0,0,0,0
1565103694718.75,-167.06,0,0,0,0,0
1565103694734.38,-204.64,0,0,0,0,0
1565103694750,-236.73,0,0,0,0,0
1565103694765.63,-260.52,0,0,0,0,0
1565103694781.25,-273.26,0,0,0,0,0
1565103694796.88,-273.21,0,0,0,0,0
1565103694812.5,-260.71,0,0,0,0,0
1565103694828.13,-238.5,0,0,0,0,0
1565103694843.75,-210.87,0,0,0,0,0
1565103694859.38,-182.03,0,0,0,0,0
1565103694875,-154.44,0,0,0,0,0
1565103694890.63,-128.28,0,0,0,0,0
1565103694906.25,-102.08,0,0,0,0,0
1565103694921.88,-73.97,0,0,0,0,0
1565103694937.5,-42.92,0,0,0,0,0
1565103694953.13,-9.13,0,0,0,0,0
1565103694968.75,26.13,0,0,0,0,0
1565103694984.38,61.48,0,0,0,0,0
1565103695000,96.17,0,0,0,0,0
1565103695015.63,130.55,0,0,0,0,0
1565103695031.25,165.88,0,0,0,0,0
1565103695046.88,203.44,0,0,0,0,0
1565103695062.5,243.56,0,0,0,0,0
1565103695078.13,284.74,0,0,0,0,0
1565103695093.75,323.6,0,0,0,0,0
1565103695109.38,355.79,0,0,0,0,0
1565103695125,377.42,0,0,0,0,0
1565103695140.63,386.49,0,0,0,0,0
1565103695156.25,383.63,0,0,0,0,0
1565103695171.88,371.9,0,0,0,0,0
1565103695187.5,355.83,0,0,0,0,0
1565103695203.13,340.25,0,0,0,0,0
1565103695218.75,329.28,0,0,0,0,0
1565103695234.38,325.83,0,0,0,0,0
1565103695250,331.45,0,0,0,0,0
1565103695265.63,346.23,0,0,0,0,0
1565103695281.25,368.83,0,0,0,0,0
1565103695296.88,396.48,0,0,0,0,0
1565103695312.5,425.45,0,0,0,0,0
1565103695328.13,451.62,0,0,0,0,0
1565103695343.75,471.62,0,0,0,0,0
1565103695359.38,483.64,0,0,0,0,0
1565103695375,487.32,0,0,0,0,0
1565103695390.63,483.13,0,0,0,0,0
1565103695406.25,471.59,0,0,0,0,0
1565103695421.88,452.92,0,0,0,0,0
1565103695437.5,426.87,0,0,0,0,0
1565103695453.13,393.37,0,0,0,0,0
1565103695468.75,352.72,0,0,0,0,0
1565103695484.38,306.02,0,0,0,0,0
1565103695500,255.12,0,0,0,0,0
1565103695515.63,202.23,0,0,0,0,0
1565103695531.25,149.54,0,0,0,0,0
1565103695546.88,99,0,0,0,0,0
1565103695562.5,52.44,0,0,0,0,0
1565103695578.13,11.37,0,0,0,0,0
1565103695593.75,-22.98,0,0,0,0,0
1565103695609.38,-50.46,0,0,0,0,0
1565103695625,-71.77,0,0,0,0,0
1565103695640.63,-88.28,0,0,0,0,0
1565103695656.25,-101.8,0,0,0,0,0
1565103695671.88,-114.24,0,0,0,0,0
1565103695687.5,-127,0,0,0,0,0
1565103695703.13,-140,0,0,0,0,0
1565103695718.75,-152.15,0,0,0,0,0
1565103695734.38,-161.21,0,0,0,0,0
1565103695750,-166.25,0,0,0,0,0
1565103695765.63,-166.63,0,0,0,0,0
1565103695781.25,-161.97,0,0,0,0,0
1565103695796.88,-152.07,0,0,0,0,0
1565103695812.5,-137,0,0,0,0,0
1565103695828.13,-117.26,0,0,0,0,0
1565103695843.75,-92.65,0,0,0,0,0
1565103695859.38,-63.8,0,0,0,0,0
1565103695875,-31.38,0,0,0,0,0
1565103695890.63,0.76,0,0,0,0,0
1565103695906.25,29.18,0,0,0,0,0
1565103695921.88,52.3,0,0,0,0,0
1565103695937.5,70.57,0,0,0,0,0
1565103695953.13,85.07,0,0,0,0,0
1565103695968.75,95.46,0,0,0,0,0
1565103695984.38,101.35,0,0,0,0,0
1565103696000,99.79,0,0,0,0,0
1565103696015.63,88.45,0,0,0,0,0
1565103696031.25,62.21,0,0,0,0,0
1565103696046.88,19.51,0,0,0,0,0
1565103696062.5,-36.11,0,0,0,0,0
1565103696078.13,-97.22,0,0,0,0,0
1565103696093.75,-155.91,0,0,0,0,0
1565103696109.38,-207.64,0,0,0,0,0
1565103696125,-248.7,0,0,0,0,0
1565103696140.63,-280.43,0,0,0,0,0
1565103696156.25,-304.99,0,0,0,0,0
1565103696171.88,-330.99,0,0,0,0,0
1565103696187.5,-364.91,0,0,0,0,0
1565103696203.13,-409,0,0,0,0,0
1565103696218.75,-461.54,0,0,0,0,0
1565103696234.38,-519.65,0,0,0,0,0
1565103696250,-582.27,0,0,0,0,0
1565103696265.63,-645.96,0,0,0,0,0
1565103696281.25,-711.18,0,0,0,0,0
1565103696296.88,-741.45,0,0,0,0,0
1565103696312.5,-715.25,0,0,0,0,0
1565103696328.13,-634.79,0,0,0,0,0
1565103696343.75,-526.35,0,0,0,0,0
1565103696359.38,-418.77,0,0,0,0,0
1565103696375,-325.55,0,0,0,0,0
1565103696390.63,-263.33,0,0,0,0,0
1565103696406.25,-212.39,0,0,0,0,0
1565103696421.88,-156.41,0,0,0,0,0
1565103696437.5,-87.72,0,0,0,0,0
1565103696453.13,-15.65,0,0,0,0,0
1565103696468.75,48.46,0,0,0,0,0
1565103696484.38,102.28,0,0,0,0,0
1565103696500,145.12,0,0,0,0,0
1565103696515.63,179.02,0,0,0,0,0
1565103696531.25,206.82,0,0,0,0,0
1565103696546.88,236.66,0,0,0,0,0
1565103696562.5,273.36,0,0,0,0,0
1565103696578.13,319.89,0,0,0,0,0
1565103696593.75,369.98,0,0,0,0,0
1565103696609.38,420.28,0,0,0,0,0
1565103696625,471.32,0,0,0,0,0
1565103696640.63,526.61,0,0,0,0,0
1565103696656.25,587.28,0,0,0,0,0
1565103696671.88,634.26,0,0,0,0,0
1565103696687.5,647.9,0,0,0,0,0
1565103696703.13,614.52,0,0,0,0,0
1565103696718.75,561.48,0,0,0,0,0
1565103696734.38,501.06,0,0,0,0,0
1565103696750,441.96,0,0,0,0,0
1565103696765.63,381.07,0,0,0,0,0
1565103696781.25,321.1,0,0,0,0,0
1565103696796.88,262.7,0,0,0,0,0
1565103696812.5,201.96,0,0,0,0,0
1565103696828.13,135.62,0,0,0,0,0
1565103696843.75,60.62,0,0,0,0,0
1565103696859.38,-26.39,0,0,0,0,0
1565103696875,-122.28,0,0,0,0,0
1565103696890.63,-211.79,0,0,0,0,0
1565103696906.25,-275.89,0,0,0,0,0
1565103696921.88,-300.73,0,0,0,0,0
1565103696937.5,-284.8,0,0,0,0,0
1565103696953.13,-239.2,0,0,0,0,0
1565103696968.75,-186.85,0,0,0,0,0
1565103696984.38,-141.94,0,0,0,0,0
1565103697000,-115.48,0,0,0,0,0
1565103697015.63,-116.22,0,0,0,0,0
1565103697031.25,-144.25,0,0,0,0,0
1565103697046.88,-191.61,0,0,0,0,0
1565103697062.5,-245.12,0,0,0,0,0
1565103697078.13,-287.9,0,0,0,0,0
1565103697093.75,-305.66,0,0,0,0,0
1565103697109.38,-289.18,0,0,0,0,0
1565103697125,-237.69,0,0,0,0,0
1565103697140.63,-160.53,0,0,0,0,0
1565103697156.25,-74.23,0,0,0,0,0
1565103697171.88,4.49,0,0,0,0,0
1565103697187.5,63.86,0,0,0,0,0
1565103697203.13,99.3,0,0,0,0,0
1565103697218.75,112,0,0,0,0,0
1565103697234.38,106.87,0,0,0,0,0
1565103697250,91.08,0,0,0,0,0
1565103697265.63,71.94,0,0,0,0,0
1565103697281.25,49.67,0,0,0,0,0
1565103697296.88,24.28,0,0,0,0,0
1565103697312.5,-3.91,0,0,0,0,0
1565103697328.13,-32.38,0,0,0,0,0
1565103697343.75,-58.6,0,0,0,0,0
1565103697359.38,-81.74,0,0,0,0,0
1565103697375,-102.87,0,0,0,0,0
1565103697390.63,-122.31,0,0,0,0,0
1565103697406.25,-141.28,0,0,0,0,0
1565103697421.88,-158.11,0,0,0,0,0
1565103697437.5,-168.79,0,0,0,0,0
1565103697453.13,-169.18,0,0,0,0,0
1565103697468.75,-154.25,0,0,0,0,0
1565103697484.38,-121.63,0,0,0,0,0
1565103697500,-73.24,0,0,0,0,0
1565103697515.63,-14.8,0,0,0,0,0
1565103697531.25,47.72,0,0,0,0,0
1565103697546.88,109.61,0,0,0,0,0
1565103697562.5,170.45,0,0,0,0,0
1565103697578.13,232.07,0,0,0,0,0
1565103697593.75,295.34,0,0,0,0,0
1565103697609.38,361.8,0,0,0,0,0
1565103697625,428.59,0,0,0,0,0
1565103697640.63,488.77,0,0,0,0,0
1565103697656.25,534.29,0,0,0,0,0
1565103697671.88,560.09,0,0,0,0,0
1565103697687.5,564.7,0,0,0,0,0
1565103697703.13,552.55,0,0,0,0,0
1565103697718.75,529.62,0,0,0,0,0
1565103697734.38,479.8,0,0,0,0,0
1565103697750,398.52,0,0,0,0,0
1565103697765.63,293.82,0,0,0,0,0
1565103697781.25,182.88,0,0,0,0,0
1565103697796.88,81.68,0,0,0,0,0
1565103697812.5,4.79,0,0,0,0,0
1565103697828.13,-57.44,0,0,0,0,0
1565103697843.75,-115.66,0,0,0,0,0
1565103697859.38,-176.05,0,0,0,0,0
1565103697875,-240.36,0,0,0,0,0
1565103697890.63,-302.62,0,0,0,0,0
1565103697906.25,-355.14,0,0,0,0,0
1565103697921.88,-393.91,0,0,0,0,0
1565103697937.5,-419.26,0,0,0,0,0
1565103697953.13,-433.73,0,0,0,0,0
1565103697968.75,-439.64,0,0,0,0,0
1565103697984.38,-433.38,0,0,0,0,0
1565103698000,-408.34,0,0,0,0,0
1565103698015.63,-360.73,0,0,0,0,0
1565103698031.25,-289.3,0,0,0,0,0
1565103698046.88,-199.32,0,0,0,0,0
1565103698062.5,-100.09,0,0,0,0,0
1565103698078.13,-0.74,0,0,0,0,0
1565103698093.75,91.81,0,0,0,0,0
1565103698109.38,171.81,0,0,0,0,0
1565103698125,235.44,0,0,0,0,0
1565103698140.63,278.26,0,0,0,0,0
1565103698156.25,294.1,0,0,0,0,0
1565103698171.88,280.9,0,0,0,0,0
1565103698187.5,241.75,0,0,0,0,0
1565103698203.13,184.54,0,0,0,0,0
1565103698218.75,119.79,0,0,0,0,0
1565103698234.38,55.01,0,0,0,0,0
1565103698250,-8.02,0,0,0,0,0
1565103698265.63,-73.08,0,0,0,0,0
1565103698281.25,-137.77,0,0,0,0,0
1565103698296.88,-194.32,0,0,0,0,0
1565103698312.5,-232.6,0,0,0,0,0
1565103698328.13,-248.06,0,0,0,0,0
1565103698343.75,-249.22,0,0,0,0,0
1565103698359.38,-245.87,0,0,0,0,0
1565103698375,-246.45,0,0,0,0,0
1565103698390.63,-255.61,0,0,0,0,0
1565103698406.25,-272.3,0,0,0,0,0
1565103698421.88,-288.09,0,0,0,0,0
1565103698437.5,-294.87,0,0,0,0,0
1565103698453.13,-286.78,0,0,0,0,0
1565103698468.75,-261.65,0,0,0,0,0
1565103698484.38,-220.53,0,0,0,0,0
1565103698500,-164.45,0,0,0,0,0
1565103698515.63,-94.55,0,0,0,0,0
1565103698531.25,-11.21,0,0,0,0,0
1565103698546.88,84.78,0,0,0,0,0
1565103698562.5,191.04,0,0,0,0,0
1565103698578.13,300.6,0,0,0,0,0
1565103698593.75,402.46,0,0,0,0,0
1565103698609.38,483.73,0,0,0,0,0
1565103698625,533.5,0,0,0,0,0
1565103698640.63,547.51,0,0,0,0,0
1565103698656.25,529.28,0,0,0,0,0
1565103698671.88,489.53,0,0,0,0,0
1565103698687.5,442.05,0,0,0,0,0
1565103698703.13,398.03,0,0,0,0,0
1565103698718.75,360.9,0,0,0,0,0
1565103698734.38,325.93,0,0,0,0,0
1565103698750,283.83,0,0,0,0,0
1565103698765.63,226.29,0,0,0,0,0
1565103698781.25,150.44,0,0,0,0,0
1565103698796.88,59.09,0,0,0,0,0
1565103698812.5,-41.52,0,0,0,0,0
1565103698828.13,-144.58,0,0,0,0,0
1565103698843.75,-243.58,0,0,0,0,0
1565103698859.38,-330.98,0,0,0,0,0
1565103698875,-396.55,0,0,0,0,0
1565103698890.63,-428.36,0,0,0,0,0
1565103698906.25,-417.23,0,0,0,0,0
1565103698921.88,-361.7,0,0,0,0,0
1565103698937.5,-271.43,0,0,0,0,0
1565103698953.13,-166.07,0,0,0,0,0
1565103698968.75,-69.79,0,0,0,0,0
1565103698984.38,-3.71,0,0,0,0,0
1565103699000,21.27,0,0,0,0,0
1565103699015.63,6.67,0,0,0,0,0
1565103699031.25,-35.89,0,0,0,0,0
1565103699046.88,-90.43,0,0,0,0,0
1565103699062.5,-142.01,0,0,0,0,0
1565103699078.13,-180.19,0,0,0,0,0
1565103699093.75,-198.79,0,0,0,0,0
1565103699109.38,-196.27,0,0,0,0,0
1565103699125,-178.9,0,0,0,0,0
1565103699140.63,-157.96,0,0,0,0,0
1565103699156.25,-142.78,0,0,0,0,0
1565103699171.88,-136.51,0,0,0,0,0
1565103699187.5,-136.49,0,0,0,0,0
1565103699203.13,-139.07,0,0,0,0,0
1565103699218.75,-141.84,0,0,0,0,0
1565103699234.38,-143.38,0,0,0,0,0
1565103699250,-142.47,0,0,0,0,0
1565103699265.63,-137.09,0,0,0,0,0
1565103699281.25,-123.94,0,0,0,0,0
1565103699296.88,-99.84,0,0,0,0,0
1565103699312.5,-63.89,0,0,0,0,0
1565103699328.13,-18.55,0,0,0,0,0
1565103699343.75,30.85,0,0,0,0,0
1565103699359.38,78.34,0,0,0,0,0
1565103699375,119.32,0,0,0,0,0
1565103699390.63,151.92,0,0,0,0,0
1565103699406.25,177.14,0,0,0,0,0
1565103699421.88,198.54,0,0,0,0,0
1565103699437.5,221.01,0,0,0,0,0
1565103699453.13,248.74,0,0,0,0,0
1565103699468.75,283.59,0,0,0,0,0
1565103699484.38,324.21,0,0,0,0,0
1565103699500,366.5,0,0,0,0,0
1565103699515.63,404.49,0,0,0,0,0
1565103699531.25,431.8,0,0,0,0,0
1565103699546.88,443.33,0,0,0,0,0
1565103699562.5,437.04,0,0,0,0,0
1565103699578.13,414.5,0,0,0,0,0
1565103699593.75,379.71,0,0,0,0,0
1565103699609.38,337.47,0,0,0,0,0
1565103699625,291.71,0,0,0,0,0
1565103699640.63,245.03,0,0,0,0,0
1565103699656.25,198.94,0,0,0,0,0
1565103699671.88,154.92,0,0,0,0,0
1565103699687.5,115.15,0,0,0,0,0
1565103699703.13,82.55,0,0,0,0,0
1565103699718.75,59.85,0,0,0,0,0
1565103699734.38,48.1,0,0,0,0,0
1565103699750,45.74,0,0,0,0,0
1565103699765.63,48.79,0,0,0,0,0
1565103699781.25,52.15,0,0,0,0,0
1565103699796.88,51.1,0,0,0,0,0
1565103699812.5,43.28,0,0,0,0,0
1565103699828.13,29.33,0,0,0,0,0
1565103699843.75,11.99,0,0,0,0,0
1565103699859.38,-5.23,0,0,0,0,0
1565103699875,-19.91,0,0,0,0,0
1565103699890.63,-31.84,0,0,0,0,0
1565103699906.25,-43.11,0,0,0,0,0
1565103699921.88,-57.23,0,0,0,0,0
1565103699937.5,-78.26,0,0,0,0,0
1565103699953.13,-108.36,0,0,0,0,0
1565103699968.75,-146.9,0,0,0,0,0
1565103699984.38,-190.84,0,0,0,0,0
1565103700000,-235.75,0,0,0,0,0
1565103700015.63,-276.45,0,0,0,0,0
1565103700031.25,-307.65,0,0,0,0,0
1565103700046.88,-324.61,0,0,0,0,0
1565103700062.5,-324.19,0,0,0,0,0
1565103700078.13,-307.26,0,0,0,0,0
1565103700093.75,-278.29,0,0,0,0,0
1565103700109.38,-245.74,0,0,0,0,0
1565103700125,-220.81,0,0,0,0,0
1565103700140.63,-214.23,0,0,0,0,0
1565103700156.25,-231.78,0,0,0,0,0
1565103700171.88,-270.85,0,0,0,0,0
1565103700187.5,-320.62,0,0,0,0,0
1565103700203.13,-366.06,0,0,0,0,0
1565103700218.75,-394.73,0,0,0,0,0
1565103700234.38,-399,0,0,0,0,0
1565103700250,-377.33,0,0,0,0,0
1565103700265.63,-332.87,0,0,0,0,0
1565103700281.25,-270.77,0,0,0,0,0
1565103700296.88,-196.05,0,0,0,0,0
1565103700312.5,-113.32,0,0,0,0,0
1565103700328.13,-28.24,0,0,0,0,0
1565103700343.75,57.19,0,0,0,0,0
1565103700359.38,131.26,0,0,0,0,0
1565103700375,180.31,0,0,0,0,0
1565103700390.63,198.41,0,0,0,0,0
1565103700406.25,192.45,0,0,0,0,0
1565103700421.88,177.55,0,0,0,0,0
1565103700437.5,167.28,0,0,0,0,0
1565103700453.13,166.79,0,0,0,0,0
1565103700468.75,172.05,0,0,0,0,0
1565103700484.38,174.95,0,0,0,0,0
1565103700500,167.03,0,0,0,0,0
1565103700515.63,145.43,0,0,0,0,0
1565103700531.25,113.66,0,0,0,0,0
1565103700546.88,78.96,0,0,0,0,0
1565103700562.5,49.91,0,0,0,0,0
1565103700578.13,33.1,0,0,0,0,0
1565103700593.75,31.19,0,0,0,0,0
1565103700609.38,42.25,0,0,0,0,0
1565103700625,60.26,0,0,0,0,0
1565103700640.63,76.19,0,0,0,0,0
1565103700656.25,82.54,0,0,0,0,0
1565103700671.88,75.72,0,0,0,0,0
1565103700687.5,56.78,0,0,0,0,0
1565103700703.13,30.36,0,0,0,0,0
1565103700718.75,2.72,0,0,0,0,0
1565103700734.38,-20.11,0,0,0,0,0
1565103700750,-33.87,0,0,0,0,0
1565103700765.63,-36.66,0,0,0,0,0
1565103700781.25,-29.43,0,0,0,0,0
1565103700796.88,-13.96,0,0,0,0,0
1565103700812.5,7.87,0,0,0,0,0
1565103700828.13,34.22,0,0,0,0,0
1565103700843.75,63.1,0,0,0,0,0
1565103700859.38,92.03,0,0,0,0,0
1565103700875,118.41,0,0,0,0,0
1565103700890.63,139.93,0,0,0,0,0
1565103700906.25,154.92,0,0,0,0,0
1565103700921.88,162.28,0,0,0,0,0
1565103700937.5,161.96,0,0,0,0,0
1565103700953.13,154.81,0,0,0,0,0
1565103700968.75,142.18,0,0,0,0,0
1565103700984.38,125.53,0,0,0,0,0
1565103701000,106.46,0,0,0,0,0
1565103701015.63,86.49,0,0,0,0,0
1565103701031.25,67,0,0,0,0,0
1565103701046.88,48.49,0,0,0,0,0
1565103701062.5,30.05,0,0,0,0,0
1565103701078.13,9.83,0,0,0,0,0
1565103701093.75,-13.98,0,0,0,0,0
1565103701109.38,-41.84,0,0,0,0,0
1565103701125,-71.98,0,0,0,0,0
1565103701140.63,-100.99,0,0,0,0,0
1565103701156.25,-125.17,0,0,0,0,0
1565103701171.88,-142.42,0,0,0,0,0
1565103701187.5,-153.09,0,0,0,0,0
1565103701203.13,-159.19,0,0,0,0,0
1565103701218.75,-162.99,0,0,0,0,0
1565103701234.38,-165.78,0,0,0,0,0
1565103701250,-168.01,0,0,0,0,0
1565103701265.63,-170.39,0,0,0,0,0
1565103701281.25,-174.76,0,0,0,0,0
1565103701296.88,-183.34,0,0,0,0,0
1565103701312.5,-196.73,0,0,0,0,0
1565103701328.13,-212.33,0,0,0,0,0
1565103701343.75,-224,0,0,0,0,0
1565103701359.38,-224.25,0,0,0,0,0
1565103701375,-207.38,0,0,0,0,0
1565103701390.63,-171.73,0,0,0,0,0
1565103701406.25,-119.7,0,0,0,0,0
1565103701421.88,-55.75,0,0,0,0,0
1565103701437.5,15.55,0,0,0,0,0
1565103701453.13,90.35,0,0,0,0,0
1565103701468.75,164.18,0,0,0,0,0
1565103701484.38,230.17,0,0,0,0,0
1565103701500,278.8,0,0,0,0,0
1565103701515.63,300.32,0,0,0,0,0
1565103701531.25,289.39,0,0,0,0,0
1565103701546.88,249.12,0,0,0,0,0
1565103701562.5,192.2,0,0,0,0,0
1565103701578.13,137.95,0,0,0,0,0
1565103701593.75,105.96,0,0,0,0,0
1565103701609.38,108.9,0,0,0,0,0
1565103701625,147.86,0,0,0,0,0
1565103701640.63,211.99,0,0,0,0,0
1565103701656.25,282.79,0,0,0,0,0
1565103701671.88,341.4,0,0,0,0,0
1565103701687.5,375.16,0,0,0,0,0
1565103701703.13,381.65,0,0,0,0,0
1565103701718.75,368.02,0,0,0,0,0
1565103701734.38,346.85,0,0,0,0,0
1565103701750,330.26,0,0,0,0,0
1565103701765.63,325.23,0,0,0,0,0
1565103701781.25,331.54,0,0,0,0,0
1565103701796.88,343.11,0,0,0,0,0
1565103701812.5,351.92,0,0,0,0,0
1565103701828.13,351.57,0,0,0,0,0
1565103701843.75,339.69,0,0,0,0,0
1565103701859.38,317.75,0,0,0,0,0
1565103701875,289.22,0,0,0,0,0
1565103701890.63,257.19,0,0,0,0,0
1565103701906.25,223.22,0,0,0,0,0
1565103701921.88,187.38,0,0,0,0,0
1565103701937.5,149.14,0,0,0,0,0
1565103701953.13,108.28,0,0,0,0,0
1565103701968.75,64.94,0,0,0,0,0
1565103701984.38,18.89,0,0,0,0,0
1565103702000,-31.01,0,0,0,0,0
1565103702015.63,-86.28,0,0,0,0,0
1565103702031.25,-147.59,0,0,0,0,0
1565103702046.88,-213.43,0,0,0,0,0
1565103702062.5,-279.91,0,0,0,0,0
1565103702078.13,-342.28,0,0,0,0,0
1565103702093.75,-397.04,0,0,0,0,0
1565103702109.38,-443.83,0,0,0,0,0
1565103702125,-485.79,0,0,0,0,0
1565103702140.63,-528.53,0,0,0,0,0
1565103702156.25,-577.69,0,0,0,0,0
1565103702171.88,-636.49,0,0,0,0,0
1565103702187.5,-703.99,0,0,0,0,0
1565103702203.13,-774.51,0,0,0,0,0
1565103702218.75,-838.77,0,0,0,0,0
1565103702234.38,-886.38,0,0,0,0,0
1565103702250,-909.34,0,0,0,0,0
1565103702265.63,-904.93,0,0,0,0,0
1565103702281.25,-877.02,0,0,0,0,0
1565103702296.88,-834.66,0,0,0,0,0
1565103702312.5,-788.48,0,0,0,0,0
1565103702328.13,-746.67,0,0,0,0,0
1565103702343.75,-712.29,0,0,0,0,0
1565103702359.38,-683.35,0,0,0,0,0
1565103702375,-655.12,0,0,0,0,0
1565103702390.63,-623.22,0,0,0,0,0
1565103702406.25,-585.42,0,0,0,0,0
1565103702421.88,-541.67,0,0,0,0,0
1565103702437.5,-492.7,0,0,0,0,0
1565103702453.13,-438.79,0,0,0,0,0
1565103702468.75,-379.54,0,0,0,0,0
1565103702484.38,-314.89,0,0,0,0,0
1565103702500,-246.3,0,0,0,0,0
1565103702515.63,-176.98,0,0,0,0,0
1565103702531.25,-111.23,0,0,0,0,0
1565103702546.88,-52.7,0,0,0,0,0
1565103702562.5,-3.07,0,0,0,0,0
1565103702578.13,38.21,0,0,0,0,0
1565103702593.75,73.27,0,0,0,0,0
1565103702609.38,104.57,0,0,0,0,0
1565103702625,133.89,0,0,0,0,0
1565103702640.63,161.5,0,0,0,0,0
1565103702656.25,186.67,0,0,0,0,0
1565103702671.88,208.39,0,0,0,0,0
1565103702687.5,226.35,0,0,0,0,0
1565103702703.13,241.39,0,0,0,0,0
1565103702718.75,255.19,0,0,0,0,0
1565103702734.38,269.78,0,0,0,0,0
1565103702750,286.73,0,0,0,0,0
1565103702765.63,306.65,0,0,0,0,0
1565103702781.25,328.98,0,0,0,0,0
1565103702796.88,352.38,0,0,0,0,0
1565103702812.5,375.31,0,0,0,0,0
1565103702828.13,396.85,0,0,0,0,0
1565103702843.75,417.35,0,0,0,0,0
1565103702859.38,438.11,0,0,0,0,0
1565103702875,461.38,0,0,0,0,0
1565103702890.63,489.39,0,0,0,0,0
1565103702906.25,522.79,0,0,0,0,0
1565103702921.88,559.45,0,0,0,0,0
1565103702937.5,594.49,0,0,0,0,0
1565103702953.13,621.46,0,0,0,0,0
1565103702968.75,635.23,0,0,0,0,0
1565103702984.38,634.17,0,0,0,0,0
1565103703000,620.43,0,0,0,0,0
1565103703015.63,599.64,0,0,0,0,0
1565103703031.25,579.11,0,0,0,0,0
1565103703046.88,564.61,0,0,0,0,0
1565103703062.5,558.46,0,0,0,0,0
1565103703078.13,559.18,0,0,0,0,0
1565103703093.75,562.37,0,0,0,0,0
1565103703109.38,563.39,0,0,0,0,0
1565103703125,558.53,0,0,0,0,0
1565103703140.63,544.21,0,0,0,0,0
1565103703156.25,518.45,0,0,0,0,0
1565103703171.88,481.74,0,0,0,0,0
1565103703187.5,435.64,0,0,0,0,0
1565103703203.13,382.1,0,0,0,0,0
1565103703218.75,322.87,0,0,0,0,0
1565103703234.38,258.79,0,0,0,0,0
1565103703250,190.77,0,0,0,0,0
1565103703265.63,119.47,0,0,0,0,0
1565103703281.25,42.68,0,0,0,0,0
1565103703296.88,-42.07,0,0,0,0,0
1565103703312.5,-134.21,0,0,0,0,0
1565103703328.13,-230.48,0,0,0,0,0
1565103703343.75,-323.99,0,0,0,0,0
1565103703359.38,-405.19,0,0,0,0,0
1565103703375,-464.62,0,0,0,0,0
1565103703390.63,-494.02,0,0,0,0,0
1565103703406.25,-489.06,0,0,0,0,0
1565103703421.88,-452.9,0,0,0,0,0
1565103703437.5,-393.25,0,0,0,0,0
1565103703453.13,-316.92,0,0,0,0,0
1565103703468.75,-229.31,0,0,0,0,0
1565103703484.38,-132.46,0,0,0,0,0
1565103703500,-26.06,0,0,0,0,0
1565103703515.63,79.7,0,0,0,0,0
1565103703531.25,168.76,0,0,0,0,0
1565103703546.88,244.32,0,0,0,0,0
1565103703562.5,308.88,0,0,0,0,0
1565103703578.13,351.7,0,0,0,0,0
1565103703593.75,367.96,0,0,0,0,0
1565103703609.38,357.91,0,0,0,0,0
1565103703625,327.77,0,0,0,0,0
1565103703640.63,286.78,0,0,0,0,0
1565103703656.25,241.77,0,0,0,0,0
1565103703671.88,197.17,0,0,0,0,0
1565103703687.5,154.43,0,0,0,0,0
1565103703703.13,113.05,0,0,0,0,0
1565103703718.75,70.2,0,0,0,0,0
1565103703734.38,25.47,0,0,0,0,0
1565103703750,-21.54,0,0,0,0,0
1565103703765.63,-69.52,0,0,0,0,0
1565103703781.25,-116.56,0,0,0,0,0
1565103703796.88,-163.64,0,0,0,0,0
1565103703812.5,-211.61,0,0,0,0,0
1565103703828.13,-260.62,0,0,0,0,0
1565103703843.75,-308.38,0,0,0,0,0
1565103703859.38,-355.58,0,0,0,0,0
1565103703875,-404.15,0,0,0,0,0
1565103703890.63,-459.34,0,0,0,0,0
1565103703906.25,-524.47,0,0,0,0,0
1565103703921.88,-584.65,0,0,0,0,0
1565103703937.5,-621.46,0,0,0,0,0
1565103703953.13,-617.88,0,0,0,0,0
1565103703968.75,-591.27,0,0,0,0,0
1565103703984.38,-549.28,0,0,0,0,0
1565103704000,-499.02,0,0,0,0,0
1565103704015.63,-437,0,0,0,0,0
1565103704031.25,-367.8,0,0,0,0,0
1565103704046.88,-296.26,0,0,0,0,0
1565103704062.5,-225.86,0,0,0,0,0
1565103704078.13,-161.87,0,0,0,0,0
1565103704093.75,-109.2,0,0,0,0,0
1565103704109.38,-71.5,0,0,0,0,0
1565103704125,-44.62,0,0,0,0,0
1565103704140.63,-23.07,0,0,0,0,0
1565103704156.25,-0.83,0,0,0,0,0
1565103704171.88,23.67,0,0,0,0,0
1565103704187.5,46.84,0,0,0,0,0
1565103704203.13,59.88,0,0,0,0,0
1565103704218.75,49.61,0,0,0,0,0
1565103704234.38,6.16,0,0,0,0,0
1565103704250,-68.89,0,0,0,0,0
1565103704265.63,-153.36,0,0,0,0,0
1565103704281.25,-219.14,0,0,0,0,0
1565103704296.88,-247.57,0,0,0,0,0
1565103704312.5,-239.81,0,0,0,0,0
1565103704328.13,-212.01,0,0,0,0,0
1565103704343.75,-182.12,0,0,0,0,0
1565103704359.38,-164.94,0,0,0,0,0
1565103704375,-160.09,0,0,0,0,0
1565103704390.63,-160.84,0,0,0,0,0
1565103704406.25,-155.96,0,0,0,0,0
1565103704421.88,-139.92,0,0,0,0,0
1565103704437.5,-113.76,0,0,0,0,0
1565103704453.13,-82.72,0,0,0,0,0
1565103704468.75,-51.67,0,0,0,0,0
1565103704484.38,-20.36,0,0,0,0,0
1565103704500,14.19,0,0,0,0,0
1565103704515.63,55.55,0,0,0,0,0
1565103704531.25,105,0,0,0,0,0
1565103704546.88,164.14,0,0,0,0,0
1565103704562.5,230.09,0,0,0,0,0
1565103704578.13,296.11,0,0,0,0,0
1565103704593.75,354.1,0,0,0,0,0
1565103704609.38,396.61,0,0,0,0,0
1565103704625,422.43,0,0,0,0,0
1565103704640.63,433.44,0,0,0,0,0
1565103704656.25,432.36,0,0,0,0,0
1565103704671.88,404.51,0,0,0,0,0
1565103704687.5,342.51,0,0,0,0,0
1565103704703.13,247.65,0,0,0,0,0
1565103704718.75,130.55,0,0,0,0,0
1565103704734.38,21.68,0,0,0,0,0
1565103704750,-70.07,0,0,0,0,0
1565103704765.63,-141.98,0,0,0,0,0
1565103704781.25,-193.24,0,0,0,0,0
1565103704796.88,-227.87,0,0,0,0,0
1565103704812.5,-247.09,0,0,0,0,0
1565103704828.13,-248.95,0,0,0,0,0
1565103704843.75,-232.15,0,0,0,0,0
1565103704859.38,-197.39,0,0,0,0,0
1565103704875,-147.68,0,0,0,0,0
1565103704890.63,-87.08,0,0,0,0,0
1565103704906.25,-17.99,0,0,0,0,0
1565103704921.88,56.28,0,0,0,0,0
1565103704937.5,130.83,0,0,0,0,0
1565103704953.13,201.23,0,0,0,0,0
1565103704968.75,266.24,0,0,0,0,0
1565103704984.38,325.91,0,0,0,0,0
1565103705000,380.46,0,0,0,0,0
1565103705015.63,429.58,0,0,0,0,0
1565103705031.25,475.02,0,0,0,0,0
1565103705046.88,520.54,0,0,0,0,0
1565103705062.5,568.15,0,0,0,0,0
1565103705078.13,615.73,0,0,0,0,0
1565103705093.75,657.53,0,0,0,0,0
1565103705109.38,686.54,0,0,0,0,0
1565103705125,695.79,0,0,0,0,0
1565103705140.63,681.05,0,0,0,0,0
1565103705156.25,617.71,0,0,0,0,0
1565103705171.88,500.6,0,0,0,0,0
1565103705187.5,346.72,0,0,0,0,0
1565103705203.13,185.76,0,0,0,0,0
1565103705218.75,43.13,0,0,0,0,0
1565103705234.38,-70.71,0,0,0,0,0
1565103705250,-158.57,0,0,0,0,0
1565103705265.63,-228.37,0,0,0,0,0
1565103705281.25,-285.92,0,0,0,0,0
1565103705296.88,-330.18,0,0,0,0,0
1565103705312.5,-358.72,0,0,0,0,0
1565103705328.13,-369.22,0,0,0,0,0
1565103705343.75,-362.16,0,0,0,0,0
1565103705359.38,-340.97,0,0,0,0,0
1565103705375,-309.13,0,0,0,0,0
1565103705390.63,-268.01,0,0,0,0,0
1565103705406.25,-217.83,0,0,0,0,0
1565103705421.88,-159.56,0,0,0,0,0
1565103705437.5,-99.12,0,0,0,0,0
1565103705453.13,-43.27,0,0,0,0,0
1565103705468.75,0.59,0,0,0,0,0
1565103705484.38,27.4,0,0,0,0,0
1565103705500,36.48,0,0,0,0,0
1565103705515.63,32.17,0,0,0,0,0
1565103705531.25,21.22,0,0,0,0,0
1565103705546.88,9.19,0,0,0,0,0
1565103705562.5,-1.98,0,0,0,0,0
1565103705578.13,-14.5,0,0,0,0,0
1565103705593.75,-30.96,0,0,0,0,0
1565103705609.38,-54.13,0,0,0,0,0
1565103705625,-85.24,0,0,0,0,0
1565103705640.63,-124.02,0,0,0,0,0
1565103705656.25,-168.87,0,0,0,0,0
1565103705671.88,-216.17,0,0,0,0,0
1565103705687.5,-260.22,0,0,0,0,0
1565103705703.13,-291.68,0,0,0,0,0
1565103705718.75,-300.57,0,0,0,0,0
1565103705734.38,-281.99,0,0,0,0,0
1565103705750,-241.54,0,0,0,0,0
1565103705765.63,-191.37,0,0,0,0,0
1565103705781.25,-144.14,0,0,0,0,0
1565103705796.88,-108.55,0,0,0,0,0
1565103705812.5,-85.47,0,0,0,0,0
1565103705828.13,-72.51,0,0,0,0,0
1565103705843.75,-66.11,0,0,0,0,0
1565103705859.38,-62.75,0,0,0,0,0
1565103705875,-58.26,0,0,0,0,0
1565103705890.63,-48.69,0,0,0,0,0
1565103705906.25,-27.82,0,0,0,0,0
1565103705921.88,10.7,0,0,0,0,0
1565103705937.5,68.44,0,0,0,0,0
1565103705953.13,139.59,0,0,0,0,0
1565103705968.75,211.11,0,0,0,0,0
1565103705984.38,266.81,0,0,0,0,0
1565103706000,293.48,0,0,0,0,0
1565103706015.63,294.42,0,0,0,0,0
1565103706031.25,274.91,0,0,0,0,0
1565103706046.88,242.63,0,0,0,0,0
1565103706062.5,205.25,0,0,0,0,0
1565103706078.13,167.54,0,0,0,0,0
1565103706093.75,127.37,0,0,0,0,0
1565103706109.38,83.31,0,0,0,0,0
1565103706125,35.08,0,0,0,0,0
1565103706140.63,-14.89,0,0,0,0,0
1565103706156.25,-61.88,0,0,0,0,0
1565103706171.88,-100.42,0,0,0,0,0
1565103706187.5,-122.92,0,0,0,0,0
1565103706203.13,-122.68,0,0,0,0,0
1565103706218.75,-98.82,0,0,0,0,0
1565103706234.38,-58.19,0,0,0,0,0
1565103706250,-13.07,0,0,0,0,0
1565103706265.63,21.94,0,0,0,0,0
1565103706281.25,37.48,0,0,0,0,0
1565103706296.88,27.88,0,0,0,0,0
1565103706312.5,-8.96,0,0,0,0,0
1565103706328.13,-69.72,0,0,0,0,0
1565103706343.75,-144.9,0,0,0,0,0
1565103706359.38,-219.66,0,0,0,0,0
1565103706375,-276.91,0,0,0,0,0
1565103706390.63,-300.84,0,0,0,0,0
1565103706406.25,-281.79,0,0,0,0,0
1565103706421.88,-218.38,0,0,0,0,0
1565103706437.5,-119.45,0,0,0,0,0
1565103706453.13,-1.89,0,0,0,0,0
1565103706468.75,113.98,0,0,0,0,0
1565103706484.38,209.63,0,0,0,0,0
1565103706500,271.84,0,0,0,0,0
1565103706515.63,295.16,0,0,0,0,0
1565103706531.25,282.99,0,0,0,0,0
1565103706546.88,245.04,0,0,0,0,0
1565103706562.5,194.59,0,0,0,0,0
1565103706578.13,142.69,0,0,0,0,0
1565103706593.75,96.52,0,0,0,0,0
1565103706609.38,58.35,0,0,0,0,0
1565103706625,26.55,0,0,0,0,0
1565103706640.63,-2.85,0,0,0,0,0
1565103706656.25,-33.61,0,0,0,0,0
1565103706671.88,-67.13,0,0,0,0,0
1565103706687.5,-103.31,0,0,0,0,0
1565103706703.13,-140.56,0,0,0,0,0
1565103706718.75,-178.95,0,0,0,0,0
1565103706734.38,-212.82,0,0,0,0,0
1565103706750,-234.86,0,0,0,0,0
1565103706765.63,-237.83,0,0,0,0,0
1565103706781.25,-218.51,0,0,0,0,0
1565103706796.88,-180.11,0,0,0,0,0
1565103706812.5,-132.22,0,0,0,0,0
1565103706828.13,-94.37,0,0,0,0,0
1565103706843.75,-77.88,0,0,0,0,0
1565103706859.38,-89.24,0,0,0,0,0
1565103706875,-127.87,0,0,0,0,0
1565103706890.63,-185.72,0,0,0,0,0
1565103706906.25,-250.75,0,0,0,0,0
1565103706921.88,-306.93,0,0,0,0,0
1565103706937.5,-340.26,0,0,0,0,0
1565103706953.13,-340.96,0,0,0,0,0
1565103706968.75,-305.75,0,0,0,0,0
1565103706984.38,-236.34,0,0,0,0,0
1565103707000,-139.95,0,0,0,0,0
1565103707015.63,-25.76,0,0,0,0,0
1565103707031.25,97.52,0,0,0,0,0
1565103707046.88,220.59,0,0,0,0,0
1565103707062.5,332.03,0,0,0,0,0
1565103707078.13,421.13,0,0,0,0,0
1565103707093.75,480.15,0,0,0,0,0
1565103707109.38,505.4,0,0,0,0,0
1565103707125,499.51,0,0,0,0,0
1565103707140.63,469.25,0,0,0,0,0
1565103707156.25,418.04,0,0,0,0,0
1565103707171.88,355.56,0,0,0,0,0
1565103707187.5,301.94,0,0,0,0,0
1565103707203.13,262.83,0,0,0,0,0
1565103707218.75,233.08,0,0,0,0,0
1565103707234.38,207.85,0,0,0,0,0
1565103707250,183.81,0,0,0,0,0
1565103707265.63,159.98,0,0,0,0,0
1565103707281.25,134.45,0,0,0,0,0
1565103707296.88,105.64,0,0,0,0,0
1565103707312.5,72.64,0,0,0,0,0
1565103707328.13,32.85,0,0,0,0,0
1565103707343.75,-18.79,0,0,0,0,0
1565103707359.38,-85.57,0,0,0,0,0
1565103707375,-166.37,0,0,0,0,0
1565103707390.63,-255.51,0,0,0,0,0
1565103707406.25,-344.35,0,0,0,0,0
1565103707421.88,-426.13,0,0,0,0,0
1565103707437.5,-495.23,0,0,0,0,0
1565103707453.13,-547.2,0,0,0,0,0
1565103707468.75,-579.88,0,0,0,0,0
1565103707484.38,-594.33,0,0,0,0,0
1565103707500,-592.53,0,0,0,0,0
1565103707515.63,-577.49,0,0,0,0,0
1565103707531.25,-553.22,0,0,0,0,0
1565103707546.88,-511.47,0,0,0,0,0
1565103707562.5,-450.18,0,0,0,0,0
1565103707578.13,-369.89,0,0,0,0,0
1565103707593.75,-272.57,0,0,0,0,0
1565103707609.38,-161.47,0,0,0,0,0
1565103707625,-42.39,0,0,0,0,0
1565103707640.63,76.09,0,0,0,0,0
1565103707656.25,182.91,0,0,0,0,0
1565103707671.88,270.31,0,0,0,0,0
1565103707687.5,335.02,0,0,0,0,0
1565103707703.13,374.01,0,0,0,0,0
1565103707718.75,387.24,0,0,0,0,0
1565103707734.38,377.34,0,0,0,0,0
1565103707750,348.88,0,0,0,0,0
1565103707765.63,307.73,0,0,0,0,0
1565103707781.25,261.7,0,0,0,0,0
1565103707796.88,215.36,0,0,0,0,0
1565103707812.5,177.6,0,0,0,0,0
1565103707828.13,151.56,0,0,0,0,0
1565103707843.75,137.09,0,0,0,0,0
1565103707859.38,130,0,0,0,0,0
1565103707875,123.42,0,0,0,0,0
1565103707890.63,111.55,0,0,0,0,0
1565103707906.25,92.26,0,0,0,0,0
1565103707921.88,67.53,0,0,0,0,0
1565103707937.5,41.18,0,0,0,0,0
1565103707953.13,16.83,0,0,0,0,0
1565103707968.75,-4.18,0,0,0,0,0
1565103707984.38,-24.65,0,0,0,0,0
1565103708000,-45.97,0,0,0,0,0
1565103708015.63,-66.27,0,0,0,0,0
1565103708031.25,-80.21,0,0,0,0,0
1565103708046.88,-82.06,0,0,0,0,0
1565103708062.5,-68.56,0,0,0,0,0
1565103708078.13,-39.64,0,0,0,0,0
1565103708093.75,3.21,0,0,0,0,0
1565103708109.38,57.1,0,0,0,0,0
1565103708125,118.2,0,0,0,0,0
1565103708140.63,182.36,0,0,0,0,0
1565103708156.25,244.47,0,0,0,0,0
1565103708171.88,298.27,0,0,0,0,0
1565103708187.5,336.16,0,0,0,0,0
1565103708203.13,351.13,0,0,0,0,0
1565103708218.75,338.64,0,0,0,0,0
1565103708234.38,298.63,0,0,0,0,0
1565103708250,234.9,0,0,0,0,0
1565103708265.63,154.2,0,0,0,0,0
1565103708281.25,65.11,0,0,0,0,0
1565103708296.88,-22.21,0,0,0,0,0
1565103708312.5,-95.89,0,0,0,0,0
1565103708328.13,-145.52,0,0,0,0,0
1565103708343.75,-165.1,0,0,0,0,0
1565103708359.38,-156.73,0,0,0,0,0
1565103708375,-131.26,0,0,0,0,0
1565103708390.63,-105.2,0,0,0,0,0
1565103708406.25,-94.65,0,0,0,0,0
1565103708421.88,-109.39,0,0,0,0,0
1565103708437.5,-149.05,0,0,0,0,0
1565103708453.13,-201.28,0,0,0,0,0
1565103708468.75,-247.52,0,0,0,0,0
1565103708484.38,-269.68,0,0,0,0,0
1565103708500,-259.49,0,0,0,0,0
1565103708515.63,-221.87,0,0,0,0,0
1565103708531.25,-170.3,0,0,0,0,0
1565103708546.88,-118.73,0,0,0,0,0
1565103708562.5,-76.69,0,0,0,0,0
1565103708578.13,-49.48,0,0,0,0,0
1565103708593.75,-34.72,0,0,0,0,0
1565103708609.38,-29.7,0,0,0,0,0
1565103708625,-32.18,0,0,0,0,0
1565103708640.63,-39.45,0,0,0,0,0
1565103708656.25,-47.44,0,0,0,0,0
1565103708671.88,-50.94,0,0,0,0,0
1565103708687.5,-43.68,0,0,0,0,0
1565103708703.13,-23.9,0,0,0,0,0
1565103708718.75,3.81,0,0,0,0,0
1565103708734.38,31.39,0,0,0,0,0
1565103708750,50.54,0,0,0,0,0
1565103708765.63,57.02,0,0,0,0,0
1565103708781.25,51.41,0,0,0,0,0
1565103708796.88,37.44,0,0,0,0,0
1565103708812.5,19.63,0,0,0,0,0
1565103708828.13,1.26,0,0,0,0,0
1565103708843.75,-16.29,0,0,0,0,0
1565103708859.38,-32.41,0,0,0,0,0
1565103708875,-45.24,0,0,0,0,0
1565103708890.63,-52.79,0,0,0,0,0
1565103708906.25,-53.59,0,0,0,0,0
1565103708921.88,-47.31,0,0,0,0,0
1565103708937.5,-35.22,0,0,0,0,0
1565103708953.13,-19.43,0,0,0,0,0
1565103708968.75,-2.22,0,0,0,0,0
1565103708984.38,14.68,0,0,0,0,0
1565103709000,30.67,0,0,0,0,0
1565103709015.63,47.16,0,0,0,0,0
1565103709031.25,66.02,0,0,0,0,0
1565103709046.88,89.15,0,0,0,0,0
1565103709062.5,118,0,0,0,0,0
1565103709078.13,153.28,0,0,0,0,0
1565103709093.75,194.75,0,0,0,0,0
1565103709109.38,240.94,0,0,0,0,0
1565103709125,288.61,0,0,0,0,0
1565103709140.63,329.06,0,0,0,0,0
1565103709156.25,353.93,0,0,0,0,0
1565103709171.88,356.38,0,0,0,0,0
1565103709187.5,333.48,0,0,0,0,0
1565103709203.13,287.84,0,0,0,0,0
1565103709218.75,227.1,0,0,0,0,0
1565103709234.38,161.66,0,0,0,0,0
1565103709250,101.28,0,0,0,0,0
1565103709265.63,52.19,0,0,0,0,0
1565103709281.25,15.83,0,0,0,0,0
1565103709296.88,-9.65,0,0,0,0,0
1565103709312.5,-28.17,0,0,0,0,0
1565103709328.13,-43.61,0,0,0,0,0
1565103709343.75,-58.56,0,0,0,0,0
1565103709359.38,-74,0,0,0,0,0
1565103709375,-89.61,0,0,0,0,0
1565103709390.63,-104.27,0,0,0,0,0
1565103709406.25,-116.56,0,0,0,0,0
1565103709421.88,-125.11,0,0,0,0,0
1565103709437.5,-128.46,0,0,0,0,0
1565103709453.13,-125.84,0,0,0,0,0
1565103709468.75,-117.1,0,0,0,0,0
1565103709484.38,-102.96,0,0,0,0,0
1565103709500,-84.84,0,0,0,0,0
1565103709515.63,-64.63,0,0,0,0,0
1565103709531.25,-44.33,0,0,0,0,0
1565103709546.88,-25.67,0,0,0,0,0
1565103709562.5,-9.83,0,0,0,0,0
1565103709578.13,3.03,0,0,0,0,0
1565103709593.75,13.33,0,0,0,0,0
1565103709609.38,21.72,0,0,0,0,0
1565103709625,28.78,0,0,0,0,0
1565103709640.63,34.6,0,0,0,0,0
1565103709656.25,38.83,0,0,0,0,0
1565103709671.88,40.88,0,0,0,0,0
1565103709687.5,40.2,0,0,0,0,0
1565103709703.13,36.63,0,0,0,0,0
1565103709718.75,30.65,0,0,0,0,0
1565103709734.38,23.11,0,0,0,0,0
1565103709750,15.03,0,0,0,0,0
1565103709765.63,7.22,0,0,0,0,0
1565103709781.25,0.03,0,0,0,0,0
1565103709796.88,-6.7,0,0,0,0,0
1565103709812.5,-13.55,0,0,0,0,0
1565103709828.13,-21.17,0,0,0,0,0
1565103709843.75,-30,0,0,0,0,0
1565103709859.38,-39.97,0,0,0,0,0
1565103709875,-50.42,0,0,0,0,0
1565103709890.63,-60.22,0,0,0,0,0
1565103709906.25,-68.11,0,0,0,0,0
1565103709921.88,-73.05,0,0,0,0,0
1565103709937.5,-74.39,0,0,0,0,0
1565103709953.13,-72.14,0,0,0,0,0
1565103709968.75,-66.86,0,0,0,0,0
1565103709984.38,-59.5,0,0,0,0,0
1565103710000,-51.18,0,0,0,0,0
1565103710015.63,-42.88,0,0,0,0,0
1565103710031.25,-35.2,0,0,0,0,0
1565103710046.88,-28.26,0,0,0,0,0
1565103710062.5,-21.66,0,0,0,0,0
1565103710078.13,-14.69,0,0,0,0,0
1565103710093.75,-6.65,0,0,0,0,0
1565103710109.38,2.84,0,0,0,0,0
1565103710125,13.55,0,0,0,0,0
1565103710140.63,24.59,0,0,0,0,0
1565103710156.25,34.62,0,0,0,0,0
1565103710171.88,42.23,0,0,0,0,0
1565103710187.5,46.3,0,0,0,0,0
1565103710203.13,46.29,0,0,0,0,0
1565103710218.75,42.24,0,0,0,0,0
1565103710234.38,34.62,0,0,0,0,0
1565103710250,24.14,0,0,0,0,0
1565103710265.63,11.48,0,0,0,0,0
1565103710281.25,-2.8,0,0,0,0,0
1565103710296.88,-18.27,0,0,0,0,0
1565103710312.5,-34.55,0,0,0,0,0
1565103710328.13,-51.14,0,0,0,0,0
1565103710343.75,-67.33,0,0,0,0,0
1565103710359.38,-82.13,0,0,0,0,0
1565103710375,-94.43,0,0,0,0,0
1565103710390.63,-103.23,0,0,0,0,0
1565103710406.25,-107.79,0,0,0,0,0
1565103710421.88,-107.88,0,0,0,0,0
1565103710437.5,-103.84,0,0,0,0,0
1565103710453.13,-96.53,0,0,0,0,0
1565103710468.75,-87.11,0,0,0,0,0
1565103710484.38,-76.75,0,0,0,0,0
1565103710500,-66.34,0,0,0,0,0
1565103710515.63,-56.34,0,0,0,0,0
1565103710531.25,-46.76,0,0,0,0,0
1565103710546.88,-37.31,0,0,0,0,0
1565103710562.5,-27.77,0,0,0,0,0
1565103710578.13,-18.08,0,0,0,0,0
1565103710593.75,-8.51,0,0,0,0,0
1565103710609.38,0.42,0,0,0,0,0
1565103710625,8.04,0,0,0,0,0
1565103710640.63,13.66,0,0,0,0,0
1565103710656.25,16.64,0,0,0,0,0
1565103710671.88,16.43,0,0,0,0,0
1565103710687.5,12.81,0,0,0,0,0
1565103710703.13,5.79,0,0,0,0,0
1565103710718.75,-4.26,0,0,0,0,0
1565103710734.38,-16.8,0,0,0,0,0
1565103710750,-31.2,0,0,0,0,0
1565103710765.63,-46.95,0,0,0,0,0
1565103710781.25,-63.59,0,0,0,0,0
1565103710796.88,-80.99,0,0,0,0,0
1565103710812.5,-99.44,0,0,0,0,0
1565103710828.13,-119.49,0,0,0,0,0
1565103710843.75,-141.4,0,0,0,0,0
1565103710859.38,-164.24,0,0,0,0,0
1565103710875,-185.39,0,0,0,0,0
1565103710890.63,-200.93,0,0,0,0,0
1565103710906.25,-206.91,0,0,0,0,0
1565103710921.88,-200.96,0,0,0,0,0
1565103710937.5,-183.5,0,0,0,0,0
1565103710953.13,-157.64,0,0,0,0,0
1565103710968.75,-127.57,0,0,0,0,0
1565103710984.38,-96.69,0,0,0,0,0
1565103711000,-66.16,0,0,0,0,0
1565103711015.63,-35.31,0,0,0,0,0
1565103711031.25,-3.31,0,0,0,0,0
1565103711046.88,29.1,0,0,0,0,0
1565103711062.5,59.41,0,0,0,0,0
1565103711078.13,84.29,0,0,0,0,0
1565103711093.75,101.22,0,0,0,0,0
1565103711109.38,109.67,0,0,0,0,0
1565103711125,111.08,0,0,0,0,0
1565103711140.63,107.79,0,0,0,0,0
1565103711156.25,101.03,0,0,0,0,0
1565103711171.88,90.34,0,0,0,0,0
1565103711187.5,73.94,0,0,0,0,0
1565103711203.13,51.29,0,0,0,0,0
1565103711218.75,23.68,0,0,0,0,0
1565103711234.38,-5.8,0,0,0,0,0
1565103711250,-34.04,0,0,0,0,0
1565103711265.63,-59.56,0,0,0,0,0
1565103711281.25,-82.49,0,0,0,0,0
1565103711296.88,-104.7,0,0,0,0,0
1565103711312.5,-127.95,0,0,0,0,0
1565103711328.13,-152.78,0,0,0,0,0
1565103711343.75,-176.02,0,0,0,0,0
1565103711359.38,-192.83,0,0,0,0,0
1565103711375,-199.38,0,0,0,0,0
1565103711390.63,-195.63,0,0,0,0,0
1565103711406.25,-185.18,0,0,0,0,0
1565103711421.88,-171.96,0,0,0,0,0
1565103711437.5,-158.55,0,0,0,0,0
1565103711453.13,-145.03,0,0,0,0,0
1565103711468.75,-130.1,0,0,0,0,0
1565103711484.38,-109.79,0,0,0,0,0
1565103711500,-80.57,0,0,0,0,0
1565103711515.63,-41.15,0,0,0,0,0
1565103711531.25,7.06,0,0,0,0,0
1565103711546.88,61.71,0,0,0,0,0
1565103711562.5,123.06,0,0,0,0,0
1565103711578.13,191.99,0,0,0,0,0
1565103711593.75,267.41,0,0,0,0,0
1565103711609.38,342.26,0,0,0,0,0
1565103711625,407.73,0,0,0,0,0
1565103711640.63,454.59,0,0,0,0,0
1565103711656.25,477.05,0,0,0,0,0
1565103711671.88,474.97,0,0,0,0,0
1565103711687.5,443.76,0,0,0,0,0
1565103711703.13,387.26,0,0,0,0,0
1565103711718.75,315.14,0,0,0,0,0
1565103711734.38,249.85,0,0,0,0,0
1565103711750,196.39,0,0,0,0,0
1565103711765.63,153.48,0,0,0,0,0
1565103711781.25,116.6,0,0,0,0,0
1565103711796.88,87.18,0,0,0,0,0
1565103711812.5,68.43,0,0,0,0,0
1565103711828.13,61.28,0,0,0,0,0
1565103711843.75,63.09,0,0,0,0,0
1565103711859.38,65.71,0,0,0,0,0
1565103711875,58.1,0,0,0,0,0
1565103711890.63,29.27,0,0,0,0,0
1565103711906.25,-23.99,0,0,0,0,0
1565103711921.88,-97.11,0,0,0,0,0
1565103711937.5,-179.56,0,0,0,0,0
1565103711953.13,-259.58,0,0,0,0,0
1565103711968.75,-327.18,0,0,0,0,0
1565103711984.38,-374.87,0,0,0,0,0
1565103712000,-400,0,0,0,0,0
1565103712015.63,-404.9,0,0,0,0,0
1565103712031.25,-396.23,0,0,0,0,0
1565103712046.88,-379.69,0,0,0,0,0
1565103712062.5,-358.59,0,0,0,0,0
1565103712078.13,-333.12,0,0,0,0,0
1565103712093.75,-302.14,0,0,0,0,0
1565103712109.38,-264.7,0,0,0,0,0
1565103712125,-220.57,0,0,0,0,0
1565103712140.63,-171.78,0,0,0,0,0
1565103712156.25,-121.78,0,0,0,0,0
1565103712171.88,-74.44,0,0,0,0,0
1565103712187.5,-30.5,0,0,0,0,0
1565103712203.13,12.01,0,0,0,0,0
1565103712218.75,56.14,0,0,0,0,0
1565103712234.38,103.12,0,0,0,0,0
1565103712250,150.95,0,0,0,0,0
1565103712265.63,195.52,0,0,0,0,0
1565103712281.25,232.14,0,0,0,0,0
