Timestamp,BVP,Note,AGG,ED,SIB,Condition
1565981013000,-0,0,0,0,0,0
1565981013015.63,-0,0,0,0,0,0
1565981013031.25,-0,0,0,0,0,0
1565981013046.88,-0,0,0,0,0,0
1565981013062.5,-0,0,0,0,0,0
1565981013078.13,-0,0,0,0,0,0
1565981013093.75,-0,0,0,0,0,0
1565981013109.38,-0,0,0,0,0,0
1565981013125,-0,0,0,0,0,0
1565981013140.63,-0,0,0,0,0,0
1565981013156.25,0,0,0,0,0,0
1565981013171.88,0.01,0,0,0,0,0
1565981013187.5,0.01,0,0,0,0,0
1565981013203.13,-0,0,0,0,0,0
1565981013218.75,-0.03,0,0,0,0,0
1565981013234.38,-0.05,0,0,0,0,0
1565981013250,-0.05,0,0,0,0,0
1565981013265.63,0,0,0,0,0,0
1565981013281.25,0.13,0,0,0,0,0
1565981013296.88,0.36,0,0,0,0,0
1565981013312.5,0.66,0,0,0,0,0
1565981013328.13,1.01,0,0,0,0,0
1565981013343.75,1.37,0,0,0,0,0
1565981013359.38,1.72,0,0,0,0,0
1565981013375,2.06,0,0,0,0,0
1565981013390.63,2.4,0,0,0,0,0
1565981013406.25,2.79,0,0,0,0,0
1565981013421.88,3.24,0,0,0,0,0
1565981013437.5,3.8,0,0,0,0,0
1565981013453.13,4.42,0,0,0,0,0
1565981013468.75,5.06,0,0,0,0,0
1565981013484.38,5.66,0,0,0,0,0
1565981013500,6.2,0,0,0,0,0
1565981013515.63,6.68,0,0,0,0,0
1565981013531.25,7.15,0,0,0,0,0
1565981013546.88,7.68,0,0,0,0,0
1565981013562.5,8.31,0,0,0,0,0
1565981013578.13,9.14,0,0,0,0,0
1565981013593.75,10.09,0,0,0,0,0
1565981013609.38,11.04,0,0,0,0,0
1565981013625,11.88,0,0,0,0,0
1565981013640.63,12.56,0,0,0,0,0
1565981013656.25,13.14,0,0,0,0,0
1565981013671.88,13.76,0,0,0,0,0
1565981013687.5,14.65,0,0,0,0,0
1565981013703.13,15.96,0,0,0,0,0
1565981013718.75,17.91,0,0,0,0,0
1565981013734.38,20.32,0,0,0,0,0
1565981013750,22.9,0,0,0,0,0
1565981013765.63,25.38,0,0,0,0,0
1565981013781.25,27.58,0,0,0,0,0
1565981013796.88,29.57,0,0,0,0,0
1565981013812.5,31.68,0,0,0,0,0
1565981013828.13,34.32,0,0,0,0,0
1565981013843.75,37.81,0,0,0,0,0
1565981013859.38,42.54,0,0,0,0,0
1565981013875,48.15,0,0,0,0,0
1565981013890.63,54.1,0,0,0,0,0
1565981013906.25,59.83,0,0,0,0,0
1565981013921.88,64.97,0,0,0,0,0
1565981013937.5,69.58,0,0,0,0,0
1565981013953.13,74.14,0,0,0,0,0
1565981013968.75,79.34,0,0,0,0,0
1565981013984.38,85.71,0,0,0,0,0
1565981014000,93.76,0,0,0,0,0
1565981014015.63,103,0,0,0,0,0
1565981014031.25,112.62,0,0,0,0,0
1565981014046.88,121.73,0,0,0,0,0
1565981014062.5,129.77,0,0,0,0,0
1565981014078.13,136.75,0,0,0,0,0
1565981014093.75,143.3,0,0,0,0,0
1565981014109.38,150.75,0,0,0,0,0
1565981014125,157.77,0,0,0,0,0
1565981014140.63,166.64,0,0,0,0,0
1565981014156.25,177.95,0,0,0,0,0
1565981014171.88,191.79,0,0,0,0,0
1565981014187.5,206.97,0,0,0,0,0
1565981014203.13,220.57,0,0,0,0,0
1565981014218.75,228.25,0,0,0,0,0
1565981014234.38,225.36,0,0,0,0,0
1565981014250,208.53,0,0,0,0,0
1565981014265.63,176.87,0,0,0,0,0
1565981014281.25,132.76,0,0,0,0,0
1565981014296.88,80.05,0,0,0,0,0
1565981014312.5,23.07,0,0,0,0,0
1565981014328.13,-34.94,0,0,0,0,0
1565981014343.75,-92.44,0,0,0,0,0
1565981014359.38,-149.16,0,0,0,0,0
1565981014375,-205.23,0,0,0,0,0
1565981014390.63,-260.37,0,0,0,0,0
1565981014406.25,-313.74,0,0,0,0,0
1565981014421.88,-363.87,0,0,0,0,0
1565981014437.5,-409.83,0,0,0,0,0
1565981014453.13,-450.91,0,0,0,0,0
1565981014468.75,-486.5,0,0,0,0,0
1565981014484.38,-515.74,0,0,0,0,0
1565981014500,-537.23,0,0,0,0,0
1565981014515.63,-549.22,0,0,0,0,0
1565981014531.25,-549.96,0,0,0,0,0
1565981014546.88,-538.37,0,0,0,0,0
1565981014562.5,-514.21,0,0,0,0,0
1565981014578.13,-478.67,0,0,0,0,0
1565981014593.75,-433.88,0,0,0,0,0
1565981014609.38,-382.45,0,0,0,0,0
1565981014625,-327.02,0,0,0,0,0
1565981014640.63,-269.84,0,0,0,0,0
1565981014656.25,-212.63,0,0,0,0,0
1565981014671.88,-156.66,0,0,0,0,0
1565981014687.5,-102.95,0,0,0,0,0
1565981014703.13,-52.37,0,0,0,0,0
1565981014718.75,-5.9,0,0,0,0,0
1565981014734.38,35.58,0,0,0,0,0
1565981014750,71.43,0,0,0,0,0
1565981014765.63,101.35,0,0,0,0,0
1565981014781.25,125.5,0,0,0,0,0
1565981014796.88,144.38,0,0,0,0,0
1565981014812.5,158.69,0,0,0,0,0
1565981014828.13,169.15,0,0,0,0,0
1565981014843.75,176.37,0,0,0,0,0
1565981014859.38,180.75,0,0,0,0,0
1565981014875,182.57,0,0,0,0,0
1565981014890.63,182.07,0,0,0,0,0
1565981014906.25,179.51,0,0,0,0,0
1565981014921.88,175.23,0,0,0,0,0
1565981014937.5,169.65,0,0,0,0,0
1565981014953.13,163.18,0,0,0,0,0
1565981014968.75,156.15,0,0,0,0,0
1565981014984.38,148.81,0,0,0,0,0
1565981015000,141.3,0,0,0,0,0
1565981015015.63,133.69,0,0,0,0,0
1565981015031.25,126.02,0,0,0,0,0
1565981015046.88,118.33,0,0,0,0,0
1565981015062.5,110.69,0,0,0,0,0
1565981015078.13,103.16,0,0,0,0,0
1565981015093.75,95.8,0,0,0,0,0
1565981015109.38,88.68,0,0,0,0,0
1565981015125,81.83,0,0,0,0,0
1565981015140.63,75.25,0,0,0,0,0
1565981015156.25,68.95,0,0,0,0,0
1565981015171.88,62.95,0,0,0,0,0
1565981015187.5,57.25,0,0,0,0,0
1565981015203.13,51.86,0,0,0,0,0
1565981015218.75,46.78,0,0,0,0,0
1565981015234.38,42.03,0,0,0,0,0
1565981015250,37.59,0,0,0,0,0
1565981015265.63,33.45,0,0,0,0,0
1565981015281.25,29.61,0,0,0,0,0
1565981015296.88,26.07,0,0,0,0,0
1565981015312.5,22.81,0,0,0,0,0
1565981015328.13,19.83,0,0,0,0,0
1565981015343.75,17.12,0,0,0,0,0
1565981015359.38,14.67,0,0,0,0,0
1565981015375,12.48,0,0,0,0,0
1565981015390.63,10.53,0,0,0,0,0
1565981015406.25,8.83,0,0,0,0,0
1565981015421.88,7.35,0,0,0,0,0
1565981015437.5,6.08,0,0,0,0,0
1565981015453.13,5,0,0,0,0,0
1565981015468.75,4.08,0,0,0,0,0
1565981015484.38,3.29,0,0,0,0,0
1565981015500,2.6,0,0,0,0,0
1565981015515.63,2,0,0,0,0,0
1565981015531.25,1.47,0,0,0,0,0
1565981015546.88,1.03,0,0,0,0,0
1565981015562.5,0.68,0,0,0,0,0
1565981015578.13,0.43,0,0,0,0,0
1565981015593.75,0.26,0,0,0,0,0
1565981015609.38,0.14,0,0,0,0,0
1565981015625,0.04,0,0,0,0,0
1565981015640.63,-0.07,0,0,0,0,0
1565981015656.25,-0.2,0,0,0,0,0
1565981015671.88,-0.33,0,0,0,0,0
1565981015687.5,-0.45,0,0,0,0,0
1565981015703.13,-0.53,0,0,0,0,0
1565981015718.75,-0.54,0,0,0,0,0
1565981015734.38,-0.5,0,0,0,0,0
1565981015750,-0.45,0,0,0,0,0
1565981015765.63,-0.44,0,0,0,0,0
1565981015781.25,-0.51,0,0,0,0,0
1565981015796.88,-0.66,0,0,0,0,0
1565981015812.5,-0.86,0,0,0,0,0
1565981015828.13,-1.04,0,0,0,0,0
1565981015843.75,-1.14,0,0,0,0,0
1565981015859.38,-1.12,0,0,0,0,0
1565981015875,-1,0,0,0,0,0
1565981015890.63,-0.88,0,0,0,0,0
1565981015906.25,-0.87,0,0,0,0,0
1565981015921.88,-1.08,0,0,0,0,0
1565981015937.5,-1.52,0,0,0,0,0
1565981015953.13,-2.1,0,0,0,0,0
1565981015968.75,-2.65,0,0,0,0,0
1565981015984.38,-2.98,0,0,0,0,0
1565981016000,-3.02,0,0,0,0,0
1565981016015.63,-2.81,0,0,0,0,0
1565981016031.25,-2.55,0,0,0,0,0
1565981016046.88,-2.52,0,0,0,0,0
1565981016062.5,-2.92,0,0,0,0,0
1565981016078.13,-3.79,0,0,0,0,0
1565981016093.75,-4.95,0,0,0,0,0
1565981016109.38,-6.06,0,0,0,0,0
1565981016125,-6.77,0,0,0,0,0
1565981016140.63,-6.89,0,0,0,0,0
1565981016156.25,-6.52,0,0,0,0,0
1565981016171.88,-5.99,0,0,0,0,0
1565981016187.5,-5.79,0,0,0,0,0
1565981016203.13,-6.26,0,0,0,0,0
1565981016218.75,-7.49,0,0,0,0,0
1565981016234.38,-9.18,0,0,0,0,0
1565981016250,-10.82,0,0,0,0,0
1565981016265.63,-11.91,0,0,0,0,0
1565981016281.25,-12.16,0,0,0,0,0
1565981016296.88,-11.67,0,0,0,0,0
1565981016312.5,-10.83,0,0,0,0,0
1565981016328.13,-10.15,0,0,0,0,0
1565981016343.75,-10.06,0,0,0,0,0
1565981016359.38,-10.87,0,0,0,0,0
1565981016375,-12.76,0,0,0,0,0
1565981016390.63,-15.64,0,0,0,0,0
1565981016406.25,-19.01,0,0,0,0,0
1565981016421.88,-21.7,0,0,0,0,0
1565981016437.5,-22.1,0,0,0,0,0
1565981016453.13,-18.56,0,0,0,0,0
1565981016468.75,-10.3,0,0,0,0,0
1565981016484.38,2.05,0,0,0,0,0
1565981016500,16.42,0,0,0,0,0
1565981016515.63,30.02,0,0,0,0,0
1565981016531.25,40.44,0,0,0,0,0
1565981016546.88,46.5,0,0,0,0,0
1565981016562.5,48.61,0,0,0,0,0
1565981016578.13,48.12,0,0,0,0,0
1565981016593.75,46.59,0,0,0,0,0
1565981016609.38,44.94,0,0,0,0,0
1565981016625,43.32,0,0,0,0,0
1565981016640.63,41.38,0,0,0,0,0
1565981016656.25,38.76,0,0,0,0,0
1565981016671.88,35.43,0,0,0,0,0
1565981016687.5,31.67,0,0,0,0,0
1565981016703.13,27.98,0,0,0,0,0
1565981016718.75,24.34,0,0,0,0,0
1565981016734.38,20.62,0,0,0,0,0
1565981016750,16.47,0,0,0,0,0
1565981016765.63,11.56,0,0,0,0,0
1565981016781.25,5.86,0,0,0,0,0
1565981016796.88,-0.27,0,0,0,0,0
1565981016812.5,-6.15,0,0,0,0,0
1565981016828.13,-11.03,0,0,0,0,0
1565981016843.75,-14.35,0,0,0,0,0
1565981016859.38,-16.08,0,0,0,0,0
1565981016875,-16.62,0,0,0,0,0
1565981016890.63,-16.65,0,0,0,0,0
1565981016906.25,-16.81,0,0,0,0,0
1565981016921.88,-17.46,0,0,0,0,0
1565981016937.5,-18.5,0,0,0,0,0
1565981016953.13,-19.58,0,0,0,0,0
1565981016968.75,-20.24,0,0,0,0,0
1565981016984.38,-20.08,0,0,0,0,0
1565981017000,-18.98,0,0,0,0,0
1565981017015.63,-17,0,0,0,0,0
1565981017031.25,-14.36,0,0,0,0,0
1565981017046.88,-11.36,0,0,0,0,0
1565981017062.5,-8.33,0,0,0,0,0
1565981017078.13,-5.53,0,0,0,0,0
1565981017093.75,-3.16,0,0,0,0,0
1565981017109.38,-1.35,0,0,0,0,0
1565981017125,-0.17,0,0,0,0,0
1565981017140.63,0.36,0,0,0,0,0
1565981017156.25,0.25,0,0,0,0,0
1565981017171.88,-0.42,0,0,0,0,0
1565981017187.5,-1.5,0,0,0,0,0
1565981017203.13,-2.75,0,0,0,0,0
1565981017218.75,-3.89,0,0,0,0,0
1565981017234.38,-4.66,0,0,0,0,0
1565981017250,-4.98,0,0,0,0,0
1565981017265.63,-4.9,0,0,0,0,0
1565981017281.25,-4.58,0,0,0,0,0
1565981017296.88,-4.19,0,0,0,0,0
1565981017312.5,-3.74,0,0,0,0,0
1565981017328.13,-3.19,0,0,0,0,0
1565981017343.75,-2.4,0,0,0,0,0
1565981017359.38,-1.29,0,0,0,0,0
1565981017375,0.11,0,0,0,0,0
1565981017390.63,1.61,0,0,0,0,0
1565981017406.25,3.02,0,0,0,0,0
1565981017421.88,4.17,0,0,0,0,0
1565981017437.5,4.99,0,0,0,0,0
1565981017453.13,5.55,0,0,0,0,0
1565981017468.75,5.94,0,0,0,0,0
1565981017484.38,6.27,0,0,0,0,0
1565981017500,6.56,0,0,0,0,0
1565981017515.63,6.76,0,0,0,0,0
1565981017531.25,6.78,0,0,0,0,0
1565981017546.88,6.56,0,0,0,0,0
1565981017562.5,6.1,0,0,0,0,0
1565981017578.13,5.5,0,0,0,0,0
1565981017593.75,4.93,0,0,0,0,0
1565981017609.38,4.51,0,0,0,0,0
1565981017625,4.26,0,0,0,0,0
1565981017640.63,4.1,0,0,0,0,0
1565981017656.25,3.84,0,0,0,0,0
1565981017671.88,3.26,0,0,0,0,0
1565981017687.5,2.26,0,0,0,0,0
1565981017703.13,0.74,0,0,0,0,0
1565981017718.75,-1.19,0,0,0,0,0
1565981017734.38,-3.37,0,0,0,0,0
1565981017750,-5.6,0,0,0,0,0
1565981017765.63,-7.62,0,0,0,0,0
1565981017781.25,-9.04,0,0,0,0,0
1565981017796.88,-9.43,0,0,0,0,0
1565981017812.5,-8.35,0,0,0,0,0
1565981017828.13,-5.56,0,0,0,0,0
1565981017843.75,-1.18,0,0,0,0,0
1565981017859.38,4.32,0,0,0,0,0
1565981017875,10.17,0,0,0,0,0
1565981017890.63,15.55,0,0,0,0,0
1565981017906.25,19.9,0,0,0,0,0
1565981017921.88,22.97,0,0,0,0,0
1565981017937.5,24.88,0,0,0,0,0
1565981017953.13,25.88,0,0,0,0,0
1565981017968.75,26.12,0,0,0,0,0
1565981017984.38,25.54,0,0,0,0,0
1565981018000,23.91,0,0,0,0,0
1565981018015.63,21.05,0,0,0,0,0
1565981018031.25,16.98,0,0,0,0,0
1565981018046.88,12.04,0,0,0,0,0
1565981018062.5,6.78,0,0,0,0,0
1565981018078.13,1.74,0,0,0,0,0
1565981018093.75,-2.79,0,0,0,0,0
1565981018109.38,-6.79,0,0,0,0,0
1565981018125,-10.37,0,0,0,0,0
1565981018140.63,-13.63,0,0,0,0,0
1565981018156.25,-16.45,0,0,0,0,0
1565981018171.88,-18.64,0,0,0,0,0
1565981018187.5,-20.07,0,0,0,0,0
1565981018203.13,-20.84,0,0,0,0,0
1565981018218.75,-21.26,0,0,0,0,0
1565981018234.38,-21.76,0,0,0,0,0
1565981018250,-22.63,0,0,0,0,0
1565981018265.63,-23.94,0,0,0,0,0
1565981018281.25,-25.55,0,0,0,0,0
1565981018296.88,-27.25,0,0,0,0,0
1565981018312.5,-28.88,0,0,0,0,0
1565981018328.13,-30.38,0,0,0,0,0
1565981018343.75,-31.81,0,0,0,0,0
1565981018359.38,-33.28,0,0,0,0,0
1565981018375,-34.91,0,0,0,0,0
1565981018390.63,-36.83,0,0,0,0,0
1565981018406.25,-39.18,0,0,0,0,0
1565981018421.88,-41.98,0,0,0,0,0
1565981018437.5,-45.03,0,0,0,0,0
1565981018453.13,-47.85,0,0,0,0,0
1565981018468.75,-49.74,0,0,0,0,0
1565981018484.38,-50,0,0,0,0,0
1565981018500,-48.12,0,0,0,0,0
1565981018515.63,-43.95,0,0,0,0,0
1565981018531.25,-37.68,0,0,0,0,0
1565981018546.88,-29.84,0,0,0,0,0
1565981018562.5,-21.11,0,0,0,0,0
1565981018578.13,-12.16,0,0,0,0,0
1565981018593.75,-3.63,0,0,0,0,0
1565981018609.38,4.01,0,0,0,0,0
1565981018625,10.45,0,0,0,0,0
1565981018640.63,15.59,0,0,0,0,0
1565981018656.25,19.48,0,0,0,0,0
1565981018671.88,22.33,0,0,0,0,0
1565981018687.5,24.38,0,0,0,0,0
1565981018703.13,25.95,0,0,0,0,0
1565981018718.75,27.32,0,0,0,0,0
1565981018734.38,28.72,0,0,0,0,0
1565981018750,30.26,0,0,0,0,0
1565981018765.63,31.91,0,0,0,0,0
1565981018781.25,33.49,0,0,0,0,0
1565981018796.88,34.76,0,0,0,0,0
1565981018812.5,35.59,0,0,0,0,0
1565981018828.13,35.96,0,0,0,0,0
1565981018843.75,36.1,0,0,0,0,0
1565981018859.38,36.23,0,0,0,0,0
1565981018875,36.51,0,0,0,0,0
1565981018890.63,36.85,0,0,0,0,0
1565981018906.25,37.02,0,0,0,0,0
1565981018921.88,36.71,0,0,0,0,0
1565981018937.5,35.75,0,0,0,0,0
1565981018953.13,34.18,0,0,0,0,0
1565981018968.75,32.2,0,0,0,0,0
1565981018984.38,30.08,0,0,0,0,0
1565981019000,27.98,0,0,0,0,0
1565981019015.63,25.86,0,0,0,0,0
1565981019031.25,23.52,0,0,0,0,0
1565981019046.88,20.69,0,0,0,0,0
1565981019062.5,17.15,1,0,0,0,0
1565981019078.13,12.93,1,0,0,0,0
1565981019093.75,8.25,1,0,0,0,0
1565981019109.38,3.52,1,0,0,0,0
1565981019125,-0.72,1,0,0,0,0
1565981019140.63,-3.98,1,0,0,0,0
1565981019156.25,-5.83,1,0,0,0,0
1565981019171.88,-6.05,1,0,0,0,0
1565981019187.5,-4.54,1,0,0,0,0
1565981019203.13,-1.48,1,0,0,0,0
1565981019218.75,2.74,1,0,0,0,0
1565981019234.38,7.56,1,0,0,0,0
1565981019250,12.29,1,0,0,0,0
1565981019265.63,16.27,1,0,0,0,0
1565981019281.25,18.98,1,0,0,0,0
1565981019296.88,20.13,1,0,0,0,0
1565981019312.5,19.68,1,0,0,0,0
1565981019328.13,17.78,1,0,0,0,0
1565981019343.75,14.73,1,0,0,0,0
1565981019359.38,10.85,1,0,0,0,0
1565981019375,6.43,1,0,0,0,0
1565981019390.63,1.74,1,0,0,0,0
1565981019406.25,-2.97,1,0,0,0,0
1565981019421.88,-7.46,1,0,0,0,0
1565981019437.5,-11.55,1,0,0,0,0
1565981019453.13,-15.06,1,0,0,0,0
1565981019468.75,-17.95,1,0,0,0,0
1565981019484.38,-20.26,1,0,0,0,0
1565981019500,-22.1,1,0,0,0,0
1565981019515.63,-23.56,1,0,0,0,0
1565981019531.25,-24.76,1,0,0,0,0
1565981019546.88,-25.72,1,0,0,0,0
1565981019562.5,-26.51,0,0,0,0,0
1565981019578.13,-27.16,0,0,0,0,0
1565981019593.75,-27.74,0,0,0,0,0
1565981019609.38,-28.36,0,0,0,0,0
1565981019625,-29.12,0,0,0,0,0
1565981019640.63,-30.09,0,0,0,0,0
1565981019656.25,-31.25,0,0,0,0,0
1565981019671.88,-32.59,0,0,0,0,0
1565981019687.5,-34,0,0,0,0,0
1565981019703.13,-35.43,0,0,0,0,0
1565981019718.75,-36.76,0,0,0,0,0
1565981019734.38,-37.9,0,0,0,0,0
1565981019750,-38.83,0,0,0,0,0
1565981019765.63,-39.55,0,0,0,0,0
1565981019781.25,-40.16,0,0,0,0,0
1565981019796.88,-40.74,0,0,0,0,0
1565981019812.5,-41.28,0,0,0,0,0
1565981019828.13,-41.53,0,0,0,0,0
1565981019843.75,-41,0,0,0,0,0
1565981019859.38,-39,0,0,0,0,0
1565981019875,-34.94,0,0,0,0,0
1565981019890.63,-28.55,0,0,0,0,0
1565981019906.25,-20,0,0,0,0,0
1565981019921.88,-9.92,0,0,0,0,0
1565981019937.5,0.8,0,0,0,0,0
1565981019953.13,11.32,0,0,0,0,0
1565981019968.75,21.02,0,0,0,0,0
1565981019984.38,29.6,0,0,0,0,0
1565981020000,37,0,0,0,0,0
1565981020015.63,43.21,0,0,0,0,0
1565981020031.25,48.15,0,0,0,0,0
1565981020046.88,51.66,0,0,0,0,0
1565981020062.5,53.61,0,0,0,0,0
1565981020078.13,53.98,0,0,0,0,0
1565981020093.75,53,0,0,0,0,0
1565981020109.38,51.02,0,0,0,0,0
1565981020125,48.43,0,0,0,0,0
1565981020140.63,45.59,0,0,0,0,0
1565981020156.25,42.69,0,0,0,0,0
1565981020171.88,39.85,0,0,0,0,0
1565981020187.5,37.14,0,0,0,0,0
1565981020203.13,34.64,0,0,0,0,0
1565981020218.75,32.48,0,0,0,0,0
1565981020234.38,30.75,0,0,0,0,0
1565981020250,29.51,0,0,0,0,0
1565981020265.63,28.65,0,0,0,0,0
1565981020281.25,27.96,0,0,0,0,0
1565981020296.88,27.16,0,0,0,0,0
1565981020312.5,25.99,0,0,0,0,0
1565981020328.13,24.32,0,0,0,0,0
1565981020343.75,22.18,0,0,0,0,0
1565981020359.38,19.71,0,0,0,0,0
1565981020375,17.08,0,0,0,0,0
1565981020390.63,14.41,0,0,0,0,0
1565981020406.25,11.74,0,0,0,0,0
1565981020421.88,8.99,0,0,0,0,0
1565981020437.5,6,0,0,0,0,0
1565981020453.13,2.56,0,0,0,0,0
1565981020468.75,-1.54,0,0,0,0,0
1565981020484.38,-6.49,0,0,0,0,0
1565981020500,-12.29,0,0,0,0,0
1565981020515.63,-18.62,0,0,0,0,0
1565981020531.25,-24.83,0,0,0,0,0
1565981020546.88,-30.03,0,0,0,0,0
1565981020562.5,-33.32,0,0,0,0,0
1565981020578.13,-34.2,0,0,0,0,0
1565981020593.75,-32.72,0,0,0,0,0
1565981020609.38,-29.45,0,0,0,0,0
1565981020625,-25.23,0,0,0,0,0
1565981020640.63,-20.88,0,0,0,0,0
1565981020656.25,-16.94,0,0,0,0,0
1565981020671.88,-13.69,0,0,0,0,0
1565981020687.5,-11.26,0,0,0,0,0
1565981020703.13,-9.79,0,0,0,0,0
1565981020718.75,-9.41,0,0,0,0,0
1565981020734.38,-10.2,0,0,0,0,0
1565981020750,-12.06,0,0,0,0,0
1565981020765.63,-14.7,0,0,0,0,0
1565981020781.25,-17.7,0,0,0,0,0
1565981020796.88,-20.69,0,0,0,0,0
1565981020812.5,-23.42,0,0,0,0,0
1565981020828.13,-25.76,0,0,0,0,0
1565981020843.75,-27.68,0,0,0,0,0
1565981020859.38,-29.17,0,0,0,0,0
1565981020875,-30.21,0,0,0,0,0
1565981020890.63,-30.76,0,0,0,0,0
1565981020906.25,-30.78,0,0,0,0,0
1565981020921.88,-30.17,0,0,0,0,0
1565981020937.5,-28.87,0,0,0,0,0
1565981020953.13,-26.91,0,0,0,0,0
1565981020968.75,-24.42,0,0,0,0,0
1565981020984.38,-21.68,0,0,0,0,0
1565981021000,-19.03,0,0,0,0,0
1565981021015.63,-16.71,0,0,0,0,0
1565981021031.25,-14.8,0,0,0,0,0
1565981021046.88,-13.12,0,0,0,0,0
1565981021062.5,-11.36,0,0,0,0,0
1565981021078.13,-9.27,0,0,0,0,0
1565981021093.75,-6.8,0,0,0,0,0
1565981021109.38,-4.12,0,0,0,0,0
1565981021125,-1.51,0,0,0,0,0
1565981021140.63,0.7,0,0,0,0,0
1565981021156.25,2.28,0,0,0,0,0
1565981021171.88,3.08,0,0,0,0,0
1565981021187.5,3.14,0,0,0,0,0
1565981021203.13,2.65,0,0,0,0,0
1565981021218.75,2.06,0,0,0,0,0
1565981021234.38,2.02,0,0,0,0,0
1565981021250,3.22,0,0,0,0,0
1565981021265.63,6.16,0,0,0,0,0
1565981021281.25,10.88,0,0,0,0,0
1565981021296.88,17.02,0,0,0,0,0
1565981021312.5,23.84,0,0,0,0,0
1565981021328.13,30.57,0,0,0,0,0
1565981021343.75,36.64,0,0,0,0,0
1565981021359.38,41.75,0,0,0,0,0
1565981021375,45.82,0,0,0,0,0
1565981021390.63,48.89,0,0,0,0,0
1565981021406.25,50.96,0,0,0,0,0
1565981021421.88,51.98,0,0,0,0,0
1565981021437.5,51.93,0,0,0,0,0
1565981021453.13,50.88,0,0,0,0,0
1565981021468.75,49.02,0,0,0,0,0
1565981021484.38,46.64,0,0,0,0,0
1565981021500,44.08,0,0,0,0,0
1565981021515.63,41.6,0,0,0,0,0
1565981021531.25,39.39,0,0,0,0,0
1565981021546.88,37.5,0,0,0,0,0
1565981021562.5,35.92,0,0,0,0,0
1565981021578.13,34.63,0,0,0,0,0
1565981021593.75,33.57,0,0,0,0,0
1565981021609.38,32.69,0,0,0,0,0
1565981021625,31.89,0,0,0,0,0
1565981021640.63,30.95,0,0,0,0,0
1565981021656.25,29.64,0,0,0,0,0
1565981021671.88,27.68,0,0,0,0,0
1565981021687.5,24.95,0,0,0,0,0
1565981021703.13,21.47,0,0,0,0,0
1565981021718.75,17.4,0,0,0,0,0
1565981021734.38,12.95,0,0,0,0,0
1565981021750,8.31,0,0,0,0,0
1565981021765.63,3.55,0,0,0,0,0
1565981021781.25,-1.35,0,0,0,0,0
1565981021796.88,-6.5,0,0,0,0,0
1565981021812.5,-11.96,0,0,0,0,0
1565981021828.13,-17.72,0,0,0,0,0
1565981021843.75,-23.64,0,0,0,0,0
1565981021859.38,-29.55,0,0,0,0,0
1565981021875,-35.21,0,0,0,0,0
1565981021890.63,-40.45,0,0,0,0,0
1565981021906.25,-45.23,0,0,0,0,0
1565981021921.88,-49.69,0,0,0,0,0
1565981021937.5,-54.05,0,0,0,0,0
1565981021953.13,-58.5,0,0,0,0,0
1565981021968.75,-63.08,0,0,0,0,0
1565981021984.38,-67.56,0,0,0,0,0
1565981022000,-71.54,0,0,0,0,0
1565981022015.63,-74.48,0,0,0,0,0
1565981022031.25,-75.87,0,0,0,0,0
1565981022046.88,-75.35,0,0,0,0,0
1565981022062.5,-72.8,0,0,0,0,0
1565981022078.13,-68.29,0,0,0,0,0
1565981022093.75,-62.12,0,0,0,0,0
1565981022109.38,-54.75,0,0,0,0,0
1565981022125,-46.7,0,0,0,0,0
1565981022140.63,-38.53,0,0,0,0,0
1565981022156.25,-30.73,0,0,0,0,0
1565981022171.88,-23.68,0,0,0,0,0
1565981022187.5,-17.58,0,0,0,0,0
1565981022203.13,-12.5,0,0,0,0,0
1565981022218.75,-8.36,0,0,0,0,0
1565981022234.38,-5,0,0,0,0,0
1565981022250,-2.2,0,0,0,0,0
1565981022265.63,0.22,0,0,0,0,0
1565981022281.25,2.47,0,0,0,0,0
1565981022296.88,4.7,0,0,0,0,0
1565981022312.5,7.05,0,0,0,0,0
1565981022328.13,9.65,0,0,0,0,0
1565981022343.75,12.64,0,0,0,0,0
1565981022359.38,16.06,0,0,0,0,0
1565981022375,19.84,0,0,0,0,0
1565981022390.63,23.83,0,0,0,0,0
1565981022406.25,27.8,0,0,0,0,0
1565981022421.88,31.54,0,0,0,0,0
1565981022437.5,34.87,0,0,0,0,0
1565981022453.13,37.69,0,0,0,0,0
1565981022468.75,39.9,0,0,0,0,0
1565981022484.38,41.37,0,0,0,0,0
1565981022500,41.96,0,0,0,0,0
1565981022515.63,41.54,0,0,0,0,0
1565981022531.25,40.17,0,0,0,0,0
1565981022546.88,38.07,0,0,0,0,0
1565981022562.5,35.51,0,0,0,0,0
1565981022578.13,32.82,0,0,0,0,0
1565981022593.75,30.15,0,0,0,0,0
1565981022609.38,27.53,0,0,0,0,0
1565981022625,24.92,0,0,0,0,0
1565981022640.63,22.24,0,0,0,0,0
1565981022656.25,19.49,0,0,0,0,0
1565981022671.88,16.7,0,0,0,0,0
1565981022687.5,13.86,0,0,0,0,0
1565981022703.13,10.91,0,0,0,0,0
1565981022718.75,7.81,0,0,0,0,0
1565981022734.38,4.58,0,0,0,0,0
1565981022750,1.45,0,0,0,0,0
1565981022765.63,-1.15,0,0,0,0,0
1565981022781.25,-2.64,0,0,0,0,0
1565981022796.88,-2.55,0,0,0,0,0
1565981022812.5,-0.59,0,0,0,0,0
1565981022828.13,3.08,0,0,0,0,0
1565981022843.75,7.97,0,0,0,0,0
1565981022859.38,13.36,0,0,0,0,0
1565981022875,18.47,0,0,0,0,0
1565981022890.63,22.72,0,0,0,0,0
1565981022906.25,25.75,0,0,0,0,0
1565981022921.88,27.5,0,0,0,0,0
1565981022937.5,28.01,0,0,0,0,0
1565981022953.13,27.36,0,0,0,0,0
1565981022968.75,25.57,0,0,0,0,0
1565981022984.38,22.67,0,0,0,0,0
1565981023000,18.74,0,0,0,0,0
1565981023015.63,14.01,0,0,0,0,0
1565981023031.25,8.86,0,0,0,0,0
1565981023046.88,3.72,0,0,0,0,0
1565981023062.5,-1.03,0,0,0,0,0
1565981023078.13,-5.2,0,0,0,0,0
1565981023093.75,-8.79,0,0,0,0,0
1565981023109.38,-11.97,0,0,0,0,0
1565981023125,-14.9,0,0,0,0,0
1565981023140.63,-17.77,0,0,0,0,0
1565981023156.25,-20.62,0,0,0,0,0
1565981023171.88,-23.42,0,0,0,0,0
1565981023187.5,-26.07,0,0,0,0,0
1565981023203.13,-28.47,0,0,0,0,0
1565981023218.75,-30.59,0,0,0,0,0
1565981023234.38,-32.46,0,0,0,0,0
1565981023250,-34.25,0,0,0,0,0
1565981023265.63,-36.17,0,0,0,0,0
1565981023281.25,-38.35,0,0,0,0,0
1565981023296.88,-40.82,0,0,0,0,0
1565981023312.5,-43.41,0,0,0,0,0
1565981023328.13,-45.83,0,0,0,0,0
1565981023343.75,-47.77,0,0,0,0,0
1565981023359.38,-49.01,0,0,0,0,0
1565981023375,-49.46,0,0,0,0,0
1565981023390.63,-49.2,0,0,0,0,0
1565981023406.25,-48.38,0,0,0,0,0
1565981023421.88,-47.15,0,0,0,0,0
1565981023437.5,-45.65,0,0,0,0,0
1565981023453.13,-43.99,0,0,0,0,0
1565981023468.75,-42.23,0,0,0,0,0
1565981023484.38,-40.29,0,0,0,0,0
1565981023500,-37.93,0,0,0,0,0
1565981023515.63,-34.69,0,0,0,0,0
1565981023531.25,-30.07,0,0,0,0,0
1565981023546.88,-23.6,0,0,0,0,0
1565981023562.5,-15.14,0,0,0,0,0
1565981023578.13,-4.85,0,0,0,0,0
1565981023593.75,6.66,0,0,0,0,0
1565981023609.38,18.55,0,0,0,0,0
1565981023625,29.86,0,0,0,0,0
1565981023640.63,39.71,0,0,0,0,0
1565981023656.25,47.49,0,0,0,0,0
1565981023671.88,52.96,0,0,0,0,0
1565981023687.5,56.23,0,0,0,0,0
1565981023703.13,57.65,0,0,0,0,0
1565981023718.75,57.68,0,0,0,0,0
1565981023734.38,56.75,0,0,0,0,0
1565981023750,55.2,0,0,0,0,0
1565981023765.63,53.3,0,0,0,0,0
1565981023781.25,51.21,0,0,0,0,0
1565981023796.88,49.1,0,0,0,0,0
1565981023812.5,47.06,0,0,0,0,0
1565981023828.13,45.13,0,0,0,0,0
1565981023843.75,43.26,0,0,0,0,0
1565981023859.38,41.39,0,0,0,0,0
1565981023875,39.52,0,0,0,0,0
1565981023890.63,37.71,0,0,0,0,0
1565981023906.25,36.07,0,0,0,0,0
1565981023921.88,34.74,0,0,0,0,0
1565981023937.5,33.74,0,0,0,0,0
1565981023953.13,33,0,0,0,0,0
1565981023968.75,32.4,0,0,0,0,0
1565981023984.38,31.76,0,0,0,0,0
1565981024000,30.91,0,0,0,0,0
1565981024015.63,29.68,0,0,0,0,0
1565981024031.25,27.91,0,0,0,0,0
1565981024046.88,25.48,0,0,0,0,0
1565981024062.5,22.32,0,0,0,0,0
1565981024078.13,18.54,0,0,0,0,0
1565981024093.75,14.34,0,0,0,0,0
1565981024109.38,9.92,0,0,0,0,0
1565981024125,5.45,0,0,0,0,0
1565981024140.63,0.93,0,0,0,0,0
1565981024156.25,-3.75,0,0,0,0,0
1565981024171.88,-8.75,0,0,0,0,0
1565981024187.5,-14.17,0,0,0,0,0
1565981024203.13,-20.09,0,0,0,0,0
1565981024218.75,-26.48,0,0,0,0,0
1565981024234.38,-33.24,0,0,0,0,0
1565981024250,-40.14,0,0,0,0,0
1565981024265.63,-46.78,0,0,0,0,0
1565981024281.25,-52.56,0,0,0,0,0
1565981024296.88,-56.81,0,0,0,0,0
1565981024312.5,-58.98,0,0,0,0,0
1565981024328.13,-58.85,0,0,0,0,0
1565981024343.75,-56.58,0,0,0,0,0
1565981024359.38,-52.72,0,0,0,0,0
1565981024375,-47.97,0,0,0,0,0
1565981024390.63,-42.94,0,0,0,0,0
1565981024406.25,-38.09,0,0,0,0,0
1565981024421.88,-33.65,0,0,0,0,0
1565981024437.5,-29.77,0,0,0,0,0
1565981024453.13,-26.58,0,0,0,0,0
1565981024468.75,-24.2,0,0,0,0,0
1565981024484.38,-22.68,0,0,0,0,0
1565981024500,-22,0,0,0,0,0
1565981024515.63,-22.01,0,0,0,0,0
1565981024531.25,-22.44,0,0,0,0,0
1565981024546.88,-22.98,0,0,0,0,0
1565981024562.5,-23.3,0,0,0,0,0
1565981024578.13,-23.14,0,0,0,0,0
1565981024593.75,-22.3,0,0,0,0,0
1565981024609.38,-20.7,0,0,0,0,0
1565981024625,-18.37,0,0,0,0,0
1565981024640.63,-15.38,0,0,0,0,0
1565981024656.25,-11.86,0,0,0,0,0
1565981024671.88,-7.97,0,0,0,0,0
1565981024687.5,-3.83,0,0,0,0,0
1565981024703.13,0.42,0,0,0,0,0
1565981024718.75,4.67,0,0,0,0,0
1565981024734.38,8.82,0,0,0,0,0
1565981024750,12.79,0,0,0,0,0
1565981024765.63,16.48,0,0,0,0,0
1565981024781.25,19.81,0,0,0,0,0
1565981024796.88,22.66,0,0,0,0,0
1565981024812.5,24.91,0,0,0,0,0
1565981024828.13,26.48,0,0,0,0,0
1565981024843.75,27.37,0,0,0,0,0
1565981024859.38,27.7,0,0,0,0,0
1565981024875,27.59,0,0,0,0,0
1565981024890.63,27.15,0,0,0,0,0
1565981024906.25,26.37,0,0,0,0,0
1565981024921.88,25.09,0,0,0,0,0
1565981024937.5,23.1,0,0,0,0,0
1565981024953.13,20.27,0,0,0,0,0
1565981024968.75,16.67,0,0,0,0,0
1565981024984.38,12.56,0,0,0,0,0
1565981025000,8.46,0,0,0,0,0
1565981025015.63,4.95,0,0,0,0,0
1565981025031.25,2.63,0,0,0,0,0
1565981025046.88,1.92,0,0,0,0,0
1565981025062.5,3.08,0,0,0,0,0
1565981025078.13,6.1,0,0,0,0,0
1565981025093.75,10.78,0,0,0,0,0
1565981025109.38,16.7,0,0,0,0,0
1565981025125,23.24,0,0,0,0,0
1565981025140.63,29.69,0,0,0,0,0
1565981025156.25,35.38,0,0,0,0,0
1565981025171.88,39.76,0,0,0,0,0
1565981025187.5,42.61,0,0,0,0,0
1565981025203.13,43.98,0,0,0,0,0
1565981025218.75,44.12,0,0,0,0,0
1565981025234.38,43.33,0,0,0,0,0
1565981025250,41.75,0,0,0,0,0
1565981025265.63,39.34,0,0,0,0,0
1565981025281.25,36.05,0,0,0,0,0
1565981025296.88,31.92,0,0,0,0,0
1565981025312.5,27.25,0,0,0,0,0
1565981025328.13,22.48,0,0,0,0,0
1565981025343.75,18.07,0,0,0,0,0
1565981025359.38,14.2,0,0,0,0,0
1565981025375,10.8,0,0,0,0,0
1565981025390.63,7.62,0,0,0,0,0
1565981025406.25,4.44,0,0,0,0,0
1565981025421.88,1.28,0,0,0,0,0
1565981025437.5,-1.67,0,0,0,0,0
1565981025453.13,-4.16,0,0,0,0,0
1565981025468.75,-6.13,0,0,0,0,0
1565981025484.38,-7.71,0,0,0,0,0
1565981025500,-9.25,0,0,0,0,0
1565981025515.63,-11.05,0,0,0,0,0
1565981025531.25,-13.25,0,0,0,0,0
1565981025546.88,-15.81,0,0,0,0,0
1565981025562.5,-18.51,0,0,0,0,0
1565981025578.13,-21.18,0,0,0,0,0
1565981025593.75,-23.68,0,0,0,0,0
1565981025609.38,-25.97,0,0,0,0,0
1565981025625,-28.11,0,0,0,0,0
1565981025640.63,-30.17,0,0,0,0,0
1565981025656.25,-32.16,0,0,0,0,0
1565981025671.88,-34.02,0,0,0,0,0
1565981025687.5,-35.59,0,0,0,0,0
1565981025703.13,-36.7,0,0,0,0,0
1565981025718.75,-37.25,0,0,0,0,0
1565981025734.38,-37.27,0,0,0,0,0
1565981025750,-36.95,0,0,0,0,0
1565981025765.63,-36.52,0,0,0,0,0
1565981025781.25,-36.13,0,0,0,0,0
1565981025796.88,-35.79,0,0,0,0,0
1565981025812.5,-35.33,0,0,0,0,0
1565981025828.13,-34.55,0,0,0,0,0
1565981025843.75,-33.25,0,0,0,0,0
1565981025859.38,-31.36,0,0,0,0,0
1565981025875,-28.85,0,0,0,0,0
1565981025890.63,-25.74,0,0,0,0,0
1565981025906.25,-22.04,0,0,0,0,0
1565981025921.88,-17.78,0,0,0,0,0
1565981025937.5,-13.11,0,0,0,0,0
1565981025953.13,-8.28,0,0,0,0,0
1565981025968.75,-3.64,0,0,0,0,0
1565981025984.38,0.53,0,0,0,0,0
1565981026000,4.02,0,0,0,0,0
1565981026015.63,6.85,0,0,0,0,0
1565981026031.25,9.08,0,0,0,0,0
1565981026046.88,10.8,0,0,0,0,0
1565981026062.5,11.94,0,0,0,0,0
1565981026078.13,12.28,0,0,0,0,0
1565981026093.75,11.54,0,0,0,0,0
1565981026109.38,9.56,0,0,0,0,0
1565981026125,6.51,0,0,0,0,0
1565981026140.63,2.96,0,0,0,0,0
1565981026156.25,-0.16,0,0,0,0,0
1565981026171.88,-1.89,0,0,0,0,0
1565981026187.5,-1.48,0,0,0,0,0
1565981026203.13,1.33,0,0,0,0,0
1565981026218.75,6.27,0,0,0,0,0
1565981026234.38,12.66,0,0,0,0,0
1565981026250,19.64,0,0,0,0,0
1565981026265.63,26.43,0,0,0,0,0
1565981026281.25,32.4,0,0,0,0,0
1565981026296.88,37.19,0,0,0,0,0
1565981026312.5,40.56,0,0,0,0,0
1565981026328.13,42.5,0,0,0,0,0
1565981026343.75,43.17,0,0,0,0,0
1565981026359.38,42.83,0,0,0,0,0
1565981026375,41.79,0,0,0,0,0
1565981026390.63,40.31,0,0,0,0,0
1565981026406.25,38.57,0,0,0,0,0
1565981026421.88,36.58,0,0,0,0,0
1565981026437.5,34.28,0,0,0,0,0
1565981026453.13,31.6,0,0,0,0,0
1565981026468.75,28.5,0,0,0,0,0
1565981026484.38,25.05,0,0,0,0,0
1565981026500,21.35,0,0,0,0,0
1565981026515.63,17.54,0,0,0,0,0
1565981026531.25,13.74,0,0,0,0,0
1565981026546.88,10.03,0,0,0,0,0
1565981026562.5,6.51,0,0,0,0,0
1565981026578.13,3.25,0,0,0,0,0
1565981026593.75,0.34,0,0,0,0,0
1565981026609.38,-2.23,0,0,0,0,0
1565981026625,-4.56,0,0,0,0,0
1565981026640.63,-6.85,0,0,0,0,0
1565981026656.25,-9.38,0,0,0,0,0
1565981026671.88,-12.33,0,0,0,0,0
1565981026687.5,-15.74,0,0,0,0,0
1565981026703.13,-19.43,0,0,0,0,0
1565981026718.75,-23.16,0,0,0,0,0
1565981026734.38,-26.73,0,0,0,0,0
1565981026750,-30.09,0,0,0,0,0
1565981026765.63,-33.34,0,0,0,0,0
1565981026781.25,-36.63,0,0,0,0,0
1565981026796.88,-40,0,0,0,0,0
1565981026812.5,-43.35,0,0,0,0,0
1565981026828.13,-46.5,0,0,0,0,0
1565981026843.75,-49.27,0,0,0,0,0
1565981026859.38,-51.6,0,0,0,0,0
1565981026875,-53.58,0,0,0,0,0
1565981026890.63,-55.41,0,0,0,0,0
1565981026906.25,-57.35,0,0,0,0,0
1565981026921.88,-59.57,0,0,0,0,0
1565981026937.5,-62.1,0,0,0,0,0
1565981026953.13,-64.71,0,0,0,0,0
1565981026968.75,-66.91,0,0,0,0,0
1565981026984.38,-68.02,0,0,0,0,0
1565981027000,-67.37,0,0,0,0,0
1565981027015.63,-64.45,0,0,0,0,0
1565981027031.25,-59.04,0,0,0,0,0
1565981027046.88,-51.31,0,0,0,0,0
1565981027062.5,-41.72,0,0,0,0,0
1565981027078.13,-30.89,0,0,0,0,0
1565981027093.75,-19.43,0,0,0,0,0
1565981027109.38,-7.89,0,0,0,0,0
1565981027125,3.28,0,0,0,0,0
1565981027140.63,13.68,0,0,0,0,0
1565981027156.25,23.01,0,0,0,0,0
1565981027171.88,31.06,0,0,0,0,0
1565981027187.5,37.72,0,0,0,0,0
1565981027203.13,43,0,0,0,0,0
1565981027218.75,46.99,0,0,0,0,0
1565981027234.38,49.82,0,0,0,0,0
1565981027250,51.57,0,0,0,0,0
1565981027265.63,52.33,0,0,0,0,0
1565981027281.25,52.18,0,0,0,0,0
1565981027296.88,51.23,0,0,0,0,0
1565981027312.5,49.69,0,0,0,0,0
1565981027328.13,47.83,0,0,0,0,0
1565981027343.75,45.93,0,0,0,0,0
1565981027359.38,44.21,0,0,0,0,0
1565981027375,42.76,0,0,0,0,0
1565981027390.63,41.54,0,0,0,0,0
1565981027406.25,40.43,0,0,0,0,0
1565981027421.88,39.36,0,0,0,0,0
1565981027437.5,38.24,0,0,0,0,0
1565981027453.13,37.09,0,0,0,0,0
1565981027468.75,35.85,0,0,0,0,0
1565981027484.38,34.47,0,0,0,0,0
1565981027500,32.84,0,0,0,0,0
1565981027515.63,30.89,0,0,0,0,0
1565981027531.25,28.66,0,0,0,0,0
1565981027546.88,26.29,0,0,0,0,0
1565981027562.5,23.89,0,0,0,0,0
1565981027578.13,21.54,0,0,0,0,0
1565981027593.75,19.15,0,0,0,0,0
1565981027609.38,16.55,0,0,0,0,0
1565981027625,13.56,0,0,0,0,0
1565981027640.63,10.07,0,0,0,0,0
1565981027656.25,6.05,0,0,0,0,0
1565981027671.88,1.54,0,0,0,0,0
1565981027687.5,-3.38,0,0,0,0,0
1565981027703.13,-8.58,0,0,0,0,0
1565981027718.75,-13.77,0,0,0,0,0
1565981027734.38,-18.46,0,0,0,0,0
1565981027750,-21.98,0,0,0,0,0
1565981027765.63,-23.74,0,0,0,0,0
1565981027781.25,-23.41,0,0,0,0,0
1565981027796.88,-21.16,0,0,0,0,0
1565981027812.5,-17.63,0,0,0,0,0
1565981027828.13,-13.73,0,0,0,0,0
1565981027843.75,-10.26,0,0,0,0,0
1565981027859.38,-7.74,0,0,0,0,0
1565981027875,-6.31,0,0,0,0,0
1565981027890.63,-5.88,0,0,0,0,0
1565981027906.25,-6.34,0,0,0,0,0
1565981027921.88,-7.62,0,0,0,0,0
1565981027937.5,-9.74,0,0,0,0,0
1565981027953.13,-12.71,0,0,0,0,0
1565981027968.75,-16.4,0,0,0,0,0
1565981027984.38,-20.55,0,0,0,0,0
1565981028000,-24.78,0,0,0,0,0
1565981028015.63,-28.74,0,0,0,0,0
1565981028031.25,-32.18,0,0,0,0,0
1565981028046.88,-35.04,0,0,0,0,0
1565981028062.5,-37.4,0,0,0,0,0
1565981028078.13,-39.36,0,0,0,0,0
1565981028093.75,-40.97,0,0,0,0,0
1565981028109.38,-42.14,0,0,0,0,0
1565981028125,-42.64,0,0,0,0,0
1565981028140.63,-42.28,0,0,0,0,0
1565981028156.25,-40.96,0,0,0,0,0
1565981028171.88,-38.85,0,0,0,0,0
1565981028187.5,-36.28,0,0,0,0,0
1565981028203.13,-33.59,0,0,0,0,0
1565981028218.75,-30.98,0,0,0,0,0
1565981028234.38,-28.38,0,0,0,0,0
1565981028250,-25.58,0,0,0,0,0
1565981028265.63,-22.39,0,0,0,0,0
1565981028281.25,-18.77,0,0,0,0,0
1565981028296.88,-14.82,0,0,0,0,0
1565981028312.5,-10.74,0,0,0,0,0
1565981028328.13,-6.67,0,0,0,0,0
1565981028343.75,-2.67,0,0,0,0,0
1565981028359.38,1.15,0,0,0,0,0
1565981028375,4.56,0,0,0,0,0
1565981028390.63,7.25,0,0,0,0,0
1565981028406.25,8.97,0,0,0,0,0
1565981028421.88,9.71,0,0,0,0,0
1565981028437.5,9.83,0,0,0,0,0
1565981028453.13,9.98,0,0,0,0,0
1565981028468.75,10.88,0,0,0,0,0
1565981028484.38,13.07,0,0,0,0,0
1565981028500,16.72,0,0,0,0,0
1565981028515.63,21.62,0,0,0,0,0
1565981028531.25,27.29,0,0,0,0,0
1565981028546.88,33.11,0,0,0,0,0
1565981028562.5,38.48,0,0,0,0,0
1565981028578.13,42.92,0,0,0,0,0
1565981028593.75,46.13,0,0,0,0,0
1565981028609.38,48.05,0,0,0,0,0
1565981028625,48.85,0,0,0,0,0
1565981028640.63,48.85,0,0,0,0,0
1565981028656.25,48.35,0,0,0,0,0
1565981028671.88,47.6,0,0,0,0,0
1565981028687.5,46.63,0,0,0,0,0
1565981028703.13,45.38,0,0,0,0,0
1565981028718.75,43.75,0,0,0,0,0
1565981028734.38,41.73,0,0,0,0,0
1565981028750,39.42,0,0,0,0,0
1565981028765.63,36.99,0,0,0,0,0
1565981028781.25,34.6,0,0,0,0,0
1565981028796.88,32.36,0,0,0,0,0
1565981028812.5,30.25,0,0,0,0,0
1565981028828.13,28.17,0,0,0,0,0
1565981028843.75,26.07,0,0,0,0,0
1565981028859.38,23.92,0,0,0,0,0
1565981028875,21.68,0,0,0,0,0
1565981028890.63,19.28,0,0,0,0,0
1565981028906.25,16.52,0,0,0,0,0
1565981028921.88,13.19,0,0,0,0,0
1565981028937.5,9.17,0,0,0,0,0
1565981028953.13,4.54,0,0,0,0,0
1565981028968.75,-0.44,0,0,0,0,0
1565981028984.38,-5.41,0,0,0,0,0
1565981029000,-10.14,0,0,0,0,0
1565981029015.63,-14.65,0,0,0,0,0
1565981029031.25,-19.21,0,0,0,0,0
1565981029046.88,-24.2,0,0,0,0,0
1565981029062.5,-29.89,0,0,0,0,0
1565981029078.13,-36.3,0,0,0,0,0
1565981029093.75,-43.19,0,0,0,0,0
1565981029109.38,-50.08,0,0,0,0,0
1565981029125,-56.46,0,0,0,0,0
1565981029140.63,-61.84,0,0,0,0,0
1565981029156.25,-65.78,0,0,0,0,0
1565981029171.88,-67.93,0,0,0,0,0
1565981029187.5,-67.97,0,0,0,0,0
1565981029203.13,-65.76,0,0,0,0,0
1565981029218.75,-61.43,0,0,0,0,0
1565981029234.38,-55.38,0,0,0,0,0
1565981029250,-48.28,0,0,0,0,0
1565981029265.63,-40.87,0,0,0,0,0
1565981029281.25,-33.8,0,0,0,0,0
1565981029296.88,-27.51,0,0,0,0,0
1565981029312.5,-22.23,0,0,0,0,0
1565981029328.13,-18.03,0,0,0,0,0
1565981029343.75,-14.88,0,0,0,0,0
1565981029359.38,-12.68,0,0,0,0,0
1565981029375,-11.17,0,0,0,0,0
1565981029390.63,-10.05,0,0,0,0,0
1565981029406.25,-8.93,0,0,0,0,0
1565981029421.88,-7.5,0,0,0,0,0
1565981029437.5,-5.57,0,0,0,0,0
1565981029453.13,-3.16,0,0,0,0,0
1565981029468.75,-0.38,0,0,0,0,0
1565981029484.38,2.66,0,0,0,0,0
1565981029500,5.93,0,0,0,0,0
1565981029515.63,9.56,0,0,0,0,0
1565981029531.25,13.68,0,0,0,0,0
1565981029546.88,18.38,0,0,0,0,0
1565981029562.5,23.48,0,0,0,0,0
1565981029578.13,28.63,0,0,0,0,0
1565981029593.75,33.28,0,0,0,0,0
1565981029609.38,36.93,0,0,0,0,0
1565981029625,39.28,0,0,0,0,0
1565981029640.63,40.32,0,0,0,0,0
1565981029656.25,40.26,0,0,0,0,0
1565981029671.88,39.44,0,0,0,0,0
1565981029687.5,38.09,0,0,0,0,0
1565981029703.13,36.32,0,0,0,0,0
1565981029718.75,34.13,0,0,0,0,0
1565981029734.38,31.48,0,0,0,0,0
1565981029750,28.41,0,0,0,0,0
1565981029765.63,24.96,0,0,0,0,0
1565981029781.25,21.12,0,0,0,0,0
1565981029796.88,16.86,0,0,0,0,0
1565981029812.5,12.18,0,0,0,0,0
1565981029828.13,7.3,0,0,0,0,0
1565981029843.75,2.75,0,0,0,0,0
1565981029859.38,-0.72,0,0,0,0,0
1565981029875,-2.41,0,0,0,0,0
1565981029890.63,-1.98,0,0,0,0,0
1565981029906.25,0.43,0,0,0,0,0
1565981029921.88,4.21,0,0,0,0,0
1565981029937.5,8.57,0,0,0,0,0
1565981029953.13,12.8,0,0,0,0,0
1565981029968.75,16.44,0,0,0,0,0
1565981029984.38,19.28,0,0,0,0,0
1565981030000,21.19,0,0,0,0,0
1565981030015.63,22.08,0,0,0,0,0
1565981030031.25,21.85,0,0,0,0,0
1565981030046.88,20.44,0,0,0,0,0
1565981030062.5,17.95,0,0,0,0,0
1565981030078.13,14.62,0,0,0,0,0
1565981030093.75,10.77,0,0,0,0,0
1565981030109.38,6.71,0,0,0,0,0
1565981030125,2.77,0,0,0,0,0
1565981030140.63,-0.8,0,0,0,0,0
1565981030156.25,-3.78,0,0,0,0,0
1565981030171.88,-6.02,0,0,0,0,0
1565981030187.5,-7.49,0,0,0,0,0
1565981030203.13,-8.27,0,0,0,0,0
1565981030218.75,-8.53,0,0,0,0,0
1565981030234.38,-8.53,0,0,0,0,0
1565981030250,-8.5,0,0,0,0,0
1565981030265.63,-8.57,0,0,0,0,0
1565981030281.25,-8.81,0,0,0,0,0
1565981030296.88,-9.14,0,0,0,0,0
1565981030312.5,-9.49,0,0,0,0,0
1565981030328.13,-9.79,0,0,0,0,0
1565981030343.75,-10.09,0,0,0,0,0
1565981030359.38,-10.51,0,0,0,0,0
1565981030375,-11.28,0,0,0,0,0
1565981030390.63,-12.58,0,0,0,0,0
1565981030406.25,-14.5,0,0,0,0,0
1565981030421.88,-16.97,0,0,0,0,0
1565981030437.5,-19.72,0,0,0,0,0
1565981030453.13,-22.44,0,0,0,0,0
1565981030468.75,-24.77,0,0,0,0,0
1565981030484.38,-26.5,0,0,0,0,0
1565981030500,-27.5,0,0,0,0,0
1565981030515.63,-27.7,0,0,0,0,0
1565981030531.25,-27.01,0,0,0,0,0
1565981030546.88,-25.28,0,0,0,0,0
1565981030562.5,-22.4,0,0,0,0,0
1565981030578.13,-18.39,0,0,0,0,0
1565981030593.75,-13.47,0,0,0,0,0
1565981030609.38,-8.03,0,0,0,0,0
1565981030625,-2.61,0,0,0,0,0
1565981030640.63,2.3,0,0,0,0,0
1565981030656.25,6.36,0,0,0,0,0
1565981030671.88,9.35,0,0,0,0,0
1565981030687.5,11.19,0,0,0,0,0
1565981030703.13,11.88,0,0,0,0,0
1565981030718.75,11.47,0,0,0,0,0
1565981030734.38,10.15,0,0,0,0,0
1565981030750,8.24,0,0,0,0,0
1565981030765.63,6.09,0,0,0,0,0
1565981030781.25,4.06,0,0,0,0,0
1565981030796.88,2.38,0,0,0,0,0
1565981030812.5,1.06,0,0,0,0,0
1565981030828.13,-0.06,0,0,0,0,0
1565981030843.75,-1.12,0,0,0,0,0
1565981030859.38,-2.15,0,0,0,0,0
1565981030875,-3.03,0,0,0,0,0
1565981030890.63,-3.51,0,0,0,0,0
1565981030906.25,-3.4,0,0,0,0,0
1565981030921.88,-2.69,0,0,0,0,0
1565981030937.5,-1.56,0,0,0,0,0
1565981030953.13,-0.36,0,0,0,0,0
1565981030968.75,0.59,0,0,0,0,0
1565981030984.38,1.1,0,0,0,0,0
1565981031000,1.12,0,0,0,0,0
1565981031015.63,0.7,0,0,0,0,0
1565981031031.25,-0.09,0,0,0,0,0
1565981031046.88,-1.27,0,0,0,0,0
1565981031062.5,-2.86,0,0,0,0,0
1565981031078.13,-4.84,0,0,0,0,0
1565981031093.75,-7.13,0,0,0,0,0
1565981031109.38,-9.58,0,0,0,0,0
1565981031125,-12.07,0,0,0,0,0
1565981031140.63,-14.55,0,0,0,0,0
1565981031156.25,-16.99,0,0,0,0,0
1565981031171.88,-19.3,0,0,0,0,0
1565981031187.5,-21.19,0,0,0,0,0
1565981031203.13,-22.24,0,0,0,0,0
1565981031218.75,-21.93,0,0,0,0,0
1565981031234.38,-19.93,0,0,0,0,0
1565981031250,-16.12,0,0,0,0,0
1565981031265.63,-10.76,0,0,0,0,0
1565981031281.25,-4.36,0,0,0,0,0
1565981031296.88,2.47,0,0,0,0,0
1565981031312.5,9.15,0,0,0,0,0
1565981031328.13,15.21,0,0,0,0,0
1565981031343.75,20.32,0,0,0,0,0
1565981031359.38,24.27,0,0,0,0,0
1565981031375,26.95,0,0,0,0,0
1565981031390.63,28.32,0,0,0,0,0
1565981031406.25,28.47,0,0,0,0,0
1565981031421.88,27.64,0,0,0,0,0
1565981031437.5,26.16,0,0,0,0,0
1565981031453.13,24.39,0,0,0,0,0
1565981031468.75,22.69,0,0,0,0,0
1565981031484.38,21.23,0,0,0,0,0
1565981031500,20.08,0,0,0,0,0
1565981031515.63,19.08,0,0,0,0,0
1565981031531.25,18.05,0,0,0,0,0
1565981031546.88,16.82,0,0,0,0,0
1565981031562.5,15.29,0,0,0,0,0
1565981031578.13,13.48,0,0,0,0,0
1565981031593.75,11.47,0,0,0,0,0
1565981031609.38,9.4,0,0,0,0,0
1565981031625,7.4,0,0,0,0,0
1565981031640.63,5.54,0,0,0,0,0
1565981031656.25,3.89,0,0,0,0,0
1565981031671.88,2.4,0,0,0,0,0
1565981031687.5,1,0,0,0,0,0
1565981031703.13,-0.38,0,0,0,0,0
1565981031718.75,-1.79,0,0,0,0,0
1565981031734.38,-3.25,0,0,0,0,0
1565981031750,-4.76,0,0,0,0,0
1565981031765.63,-6.32,0,0,0,0,0
1565981031781.25,-7.99,0,0,0,0,0
1565981031796.88,-9.87,0,0,0,0,0
1565981031812.5,-12.09,0,0,0,0,0
1565981031828.13,-14.75,0,0,0,0,0
1565981031843.75,-17.8,0,0,0,0,0
1565981031859.38,-21,0,0,0,0,0
1565981031875,-23.94,0,0,0,0,0
1565981031890.63,-26.06,0,0,0,0,0
1565981031906.25,-26.8,0,0,0,0,0
1565981031921.88,-25.8,0,0,0,0,0
1565981031937.5,-22.9,0,0,0,0,0
1565981031953.13,-18.34,0,0,0,0,0
1565981031968.75,-12.58,0,0,0,0,0
1565981031984.38,-6.24,0,0,0,0,0
1565981032000,0.07,0,0,0,0,0
1565981032015.63,5.86,0,0,0,0,0
1565981032031.25,10.78,0,0,0,0,0
1565981032046.88,14.62,0,0,0,0,0
1565981032062.5,17.29,0,0,0,0,0
1565981032078.13,18.77,0,0,0,0,0
1565981032093.75,19.17,0,0,0,0,0
1565981032109.38,18.69,0,0,0,0,0
1565981032125,17.56,0,0,0,0,0
1565981032140.63,16,0,0,0,0,0
1565981032156.25,14.09,0,0,0,0,0
1565981032171.88,11.83,0,0,0,0,0
1565981032187.5,9.2,0,0,0,0,0
1565981032203.13,6.26,0,0,0,0,0
1565981032218.75,3.18,0,0,0,0,0
1565981032234.38,0.26,0,0,0,0,0
1565981032250,-2.26,0,0,0,0,0
1565981032265.63,-4.26,0,0,0,0,0
1565981032281.25,-5.78,0,0,0,0,0
1565981032296.88,-6.97,0,0,0,0,0
1565981032312.5,-8,0,0,0,0,0
1565981032328.13,-9.03,0,0,0,0,0
1565981032343.75,-10.16,0,0,0,0,0
1565981032359.38,-11.44,0,0,0,0,0
1565981032375,-12.99,0,0,0,0,0
1565981032390.63,-14.84,0,0,0,0,0
1565981032406.25,-17.05,0,0,0,0,0
1565981032421.88,-19.58,0,0,0,0,0
1565981032437.5,-22.35,0,0,0,0,0
1565981032453.13,-25.17,0,0,0,0,0
1565981032468.75,-27.84,0,0,0,0,0
1565981032484.38,-30.15,0,0,0,0,0
1565981032500,-31.94,0,0,0,0,0
1565981032515.63,-33.17,0,0,0,0,0
1565981032531.25,-33.95,0,0,0,0,0
1565981032546.88,-34.54,0,0,0,0,0
1565981032562.5,-35.28,0,0,0,0,0
1565981032578.13,-36.45,0,0,0,0,0
1565981032593.75,-38.17,0,0,0,0,0
1565981032609.38,-40.34,0,0,0,0,0
1565981032625,-42.65,0,0,0,0,0
1565981032640.63,-44.58,0,0,0,0,0
1565981032656.25,-45.49,0,0,0,0,0
1565981032671.88,-44.71,0,0,0,0,0
1565981032687.5,-41.64,0,0,0,0,0
1565981032703.13,-36,0,0,0,0,0
1565981032718.75,-27.9,0,0,0,0,0
1565981032734.38,-17.92,0,0,0,0,0
1565981032750,-6.92,0,0,0,0,0
1565981032765.63,4.1,0,0,0,0,0
1565981032781.25,14.37,0,0,0,0,0
1565981032796.88,23.41,0,0,0,0,0
1565981032812.5,31.05,0,0,0,0,0
1565981032828.13,37.31,0,0,0,0,0
1565981032843.75,42.35,0,0,0,0,0
1565981032859.38,46.31,0,0,0,0,0
1565981032875,49.31,0,0,0,0,0
1565981032890.63,51.36,0,0,0,0,0
1565981032906.25,52.42,0,0,0,0,0
1565981032921.88,52.42,0,0,0,0,0
1565981032937.5,51.34,0,0,0,0,0
1565981032953.13,49.33,0,0,0,0,0
1565981032968.75,46.75,0,0,0,0,0
1565981032984.38,44.08,0,0,0,0,0
1565981033000,41.75,0,0,0,0,0
1565981033015.63,40.03,0,0,0,0,0
1565981033031.25,38.9,0,0,0,0,0
1565981033046.88,38.1,0,0,0,0,0
1565981033062.5,37.35,0,0,0,0,0
1565981033078.13,36.45,0,0,0,0,0
1565981033093.75,35.34,0,0,0,0,0
1565981033109.38,34.05,0,0,0,0,0
1565981033125,32.59,0,0,0,0,0
1565981033140.63,30.89,0,0,0,0,0
1565981033156.25,28.89,0,0,0,0,0
1565981033171.88,26.48,0,0,0,0,0
1565981033187.5,23.67,0,0,0,0,0
1565981033203.13,20.58,0,0,0,0,0
1565981033218.75,17.35,0,0,0,0,0
1565981033234.38,14.06,0,0,0,0,0
1565981033250,10.62,0,0,0,0,0
1565981033265.63,6.78,0,0,0,0,0
1565981033281.25,2.16,0,0,0,0,0
1565981033296.88,-3.51,0,0,0,0,0
1565981033312.5,-10.29,0,0,0,0,0
1565981033328.13,-17.86,0,0,0,0,0
1565981033343.75,-25.47,0,0,0,0,0
1565981033359.38,-32.15,0,0,0,0,0
1565981033375,-36.96,0,0,0,0,0
1565981033390.63,-39.26,0,0,0,0,0
1565981033406.25,-38.93,0,0,0,0,0
1565981033421.88,-36.41,0,0,0,0,0
1565981033437.5,-32.43,0,0,0,0,0
1565981033453.13,-27.78,0,0,0,0,0
1565981033468.75,-23.03,0,0,0,0,0
1565981033484.38,-18.42,0,0,0,0,0
1565981033500,-13.98,0,0,0,0,0
1565981033515.63,-9.72,0,0,0,0,0
1565981033531.25,-5.81,0,0,0,0,0
1565981033546.88,-2.6,0,0,0,0,0
1565981033562.5,-0.56,0,0,0,0,0
1565981033578.13,-0.01,0,0,0,0,0
1565981033593.75,-0.98,0,0,0,0,0
1565981033609.38,-3.19,0,0,0,0,0
1565981033625,-6.13,0,0,0,0,0
1565981033640.63,-9.28,0,0,0,0,0
1565981033656.25,-12.25,0,0,0,0,0
1565981033671.88,-14.86,0,0,0,0,0
1565981033687.5,-17.08,0,0,0,0,0
1565981033703.13,-18.93,0,0,0,0,0
1565981033718.75,-20.35,0,0,0,0,0
1565981033734.38,-21.22,0,0,0,0,0
1565981033750,-21.38,0,0,0,0,0
1565981033765.63,-20.78,0,0,0,0,0
1565981033781.25,-19.5,0,0,0,0,0
1565981033796.88,-17.79,0,0,0,0,0
1565981033812.5,-15.85,0,0,0,0,0
1565981033828.13,-13.9,0,0,0,0,0
1565981033843.75,-12.01,0,0,0,0,0
1565981033859.38,-10.22,0,0,0,0,0
1565981033875,-8.54,0,0,0,0,0
1565981033890.63,-7.03,0,0,0,0,0
1565981033906.25,-5.77,0,0,0,0,0
1565981033921.88,-4.78,0,0,0,0,0
1565981033937.5,-3.96,0,0,0,0,0
1565981033953.13,-3.18,0,0,0,0,0
1565981033968.75,-2.27,0,0,0,0,0
1565981033984.38,-1.18,0,0,0,0,0
1565981034000,0.08,0,0,0,0,0
1565981034015.63,1.35,0,0,0,0,0
1565981034031.25,2.43,0,0,0,0,0
1565981034046.88,3.06,0,0,0,0,0
1565981034062.5,3.14,0,0,0,0,0
1565981034078.13,2.69,0,0,0,0,0
1565981034093.75,1.96,0,0,0,0,0
1565981034109.38,1.45,0,0,0,0,0
1565981034125,1.74,0,0,0,0,0
1565981034140.63,3.32,0,0,0,0,0
1565981034156.25,6.44,0,0,0,0,0
1565981034171.88,10.97,0,0,0,0,0
1565981034187.5,16.5,0,0,0,0,0
1565981034203.13,22.49,0,0,0,0,0
1565981034218.75,28.38,0,0,0,0,0
1565981034234.38,33.74,0,0,0,0,0
1565981034250,38.27,0,0,0,0,0
1565981034265.63,41.79,0,0,0,0,0
1565981034281.25,44.15,0,0,0,0,0
1565981034296.88,45.3,0,0,0,0,0
1565981034312.5,45.22,0,0,0,0,0
1565981034328.13,43.99,0,0,0,0,0
1565981034343.75,41.78,0,0,0,0,0
1565981034359.38,38.8,0,0,0,0,0
1565981034375,35.29,0,0,0,0,0
1565981034390.63,31.49,0,0,0,0,0
1565981034406.25,27.64,0,0,0,0,0
1565981034421.88,23.94,0,0,0,0,0
1565981034437.5,20.58,0,0,0,0,0
1565981034453.13,17.63,0,0,0,0,0
1565981034468.75,15.11,0,0,0,0,0
1565981034484.38,12.93,0,0,0,0,0
1565981034500,10.96,0,0,0,0,0
1565981034515.63,9.09,0,0,0,0,0
1565981034531.25,7.24,0,0,0,0,0
1565981034546.88,5.39,0,0,0,0,0
1565981034562.5,3.53,0,0,0,0,0
1565981034578.13,1.64,0,0,0,0,0
1565981034593.75,-0.34,0,0,0,0,0
1565981034609.38,-2.47,0,0,0,0,0
1565981034625,-4.79,0,0,0,0,0
1565981034640.63,-7.31,0,0,0,0,0
1565981034656.25,-10,0,0,0,0,0
1565981034671.88,-12.82,0,0,0,0,0
1565981034687.5,-15.77,0,0,0,0,0
1565981034703.13,-18.88,0,0,0,0,0
1565981034718.75,-22.19,0,0,0,0,0
1565981034734.38,-25.78,0,0,0,0,0
1565981034750,-29.73,0,0,0,0,0
1565981034765.63,-34.12,0,0,0,0,0
1565981034781.25,-38.97,0,0,0,0,0
1565981034796.88,-44.2,0,0,0,0,0
1565981034812.5,-49.55,0,0,0,0,0
1565981034828.13,-54.6,0,0,0,0,0
1565981034843.75,-58.71,0,0,0,0,0
1565981034859.38,-61.25,0,0,0,0,0
1565981034875,-61.68,0,0,0,0,0
1565981034890.63,-59.73,0,0,0,0,0
1565981034906.25,-55.54,0,0,0,0,0
1565981034921.88,-49.59,0,0,0,0,0
1565981034937.5,-42.56,0,0,0,0,0
1565981034953.13,-35.15,0,0,0,0,0
1565981034968.75,-27.92,0,0,0,0,0
1565981034984.38,-21.21,0,0,0,0,0
1565981035000,-15.13,0,0,0,0,0
1565981035015.63,-9.71,0,0,0,0,0
1565981035031.25,-4.99,0,0,0,0,0
1565981035046.88,-1.03,0,0,0,0,0
1565981035062.5,2.11,0,0,0,0,0
1565981035078.13,4.43,0,0,0,0,0
1565981035093.75,6.11,0,0,0,0,0
1565981035109.38,7.43,0,0,0,0,0
1565981035125,8.77,0,0,0,0,0
1565981035140.63,10.41,0,0,0,0,0
1565981035156.25,12.42,0,0,0,0,0
1565981035171.88,14.67,0,0,0,0,0
1565981035187.5,16.93,0,0,0,0,0
1565981035203.13,19.04,0,0,0,0,0
1565981035218.75,21.01,0,0,0,0,0
1565981035234.38,23.03,0,0,0,0,0
1565981035250,25.28,0,0,0,0,0
1565981035265.63,27.8,0,0,0,0,0
1565981035281.25,30.33,0,0,0,0,0
1565981035296.88,32.42,0,0,0,0,0
1565981035312.5,33.64,0,0,0,0,0
1565981035328.13,33.72,0,0,0,0,0
1565981035343.75,32.69,0,0,0,0,0
1565981035359.38,30.76,0,0,0,0,0
1565981035375,28.2,0,0,0,0,0
1565981035390.63,25.27,0,0,0,0,0
1565981035406.25,22.1,0,0,0,0,0
1565981035421.88,18.83,0,0,0,0,0
1565981035437.5,15.64,0,0,0,0,0
1565981035453.13,12.71,0,0,0,0,0
1565981035468.75,10.07,0,0,0,0,0
1565981035484.38,7.61,0,0,0,0,0
1565981035500,5.06,0,0,0,0,0
1565981035515.63,2.18,0,0,0,0,0
1565981035531.25,-1.02,0,0,0,0,0
1565981035546.88,-4.19,0,0,0,0,0
1565981035562.5,-6.65,0,0,0,0,0
1565981035578.13,-7.63,0,0,0,0,0
1565981035593.75,-6.54,0,0,0,0,0
1565981035609.38,-3.22,0,0,0,0,0
1565981035625,2,0,0,0,0,0
1565981035640.63,8.39,0,0,0,0,0
1565981035656.25,14.97,0,0,0,0,0
1565981035671.88,20.79,0,0,0,0,0
1565981035687.5,25.13,0,0,0,0,0
1565981035703.13,27.59,0,0,0,0,0
1565981035718.75,28.15,0,0,0,0,0
1565981035734.38,27.05,0,0,0,0,0
1565981035750,24.66,0,0,0,0,0
1565981035765.63,21.37,0,0,0,0,0
1565981035781.25,17.52,0,0,0,0,0
1565981035796.88,13.35,0,0,0,0,0
1565981035812.5,9.08,0,0,0,0,0
1565981035828.13,4.87,0,0,0,0,0
1565981035843.75,0.84,0,0,0,0,0
1565981035859.38,-2.96,0,0,0,0,0
1565981035875,-6.55,0,0,0,0,0
1565981035890.63,-9.98,0,0,0,0,0
1565981035906.25,-13.22,0,0,0,0,0
1565981035921.88,-16.17,0,0,0,0,0
1565981035937.5,-18.67,0,0,0,0,0
1565981035953.13,-20.58,0,0,0,0,0
1565981035968.75,-21.98,0,0,0,0,0
1565981035984.38,-23.11,0,0,0,0,0
1565981036000,-24.36,0,0,0,0,0
1565981036015.63,-26.09,0,0,0,0,0
1565981036031.25,-28.47,0,0,0,0,0
1565981036046.88,-31.37,0,0,0,0,0
1565981036062.5,-34.43,0,0,0,0,0
1565981036078.13,-37.16,0,0,0,0,0
1565981036093.75,-39.22,0,0,0,0,0
1565981036109.38,-40.46,0,0,0,0,0
1565981036125,-41.07,0,0,0,0,0
1565981036140.63,-41.43,0,0,0,0,0
1565981036156.25,-41.98,0,0,0,0,0
1565981036171.88,-43.08,0,0,0,0,0
1565981036187.5,-44.83,0,0,0,0,0
1565981036203.13,-47.03,0,0,0,0,0
1565981036218.75,-49.26,0,0,0,0,0
1565981036234.38,-50.85,0,0,0,0,0
1565981036250,-51.08,0,0,0,0,0
1565981036265.63,-49.28,0,0,0,0,0
1565981036281.25,-45.03,0,0,0,0,0
1565981036296.88,-38.26,0,0,0,0,0
1565981036312.5,-29.31,0,0,0,0,0
1565981036328.13,-18.89,0,0,0,0,0
1565981036343.75,-7.88,0,0,0,0,0
1565981036359.38,2.86,0,0,0,0,0
1565981036375,12.76,0,0,0,0,0
1565981036390.63,21.58,0,0,0,0,0
1565981036406.25,29.37,0,0,0,0,0
1565981036421.88,36.24,0,0,0,0,0
1565981036437.5,42.2,0,0,0,0,0
1565981036453.13,47.06,0,0,0,0,0
1565981036468.75,50.51,0,0,0,0,0
1565981036484.38,52.38,0,0,0,0,0
1565981036500,52.7,0,0,0,0,0
1565981036515.63,51.79,0,0,0,0,0
1565981036531.25,50.13,0,0,0,0,0
1565981036546.88,48.19,0,0,0,0,0
1565981036562.5,46.26,0,0,0,0,0
1565981036578.13,44.47,0,0,0,0,0
1565981036593.75,42.78,0,0,0,0,0
1565981036609.38,41.16,0,0,0,0,0
1565981036625,39.64,0,0,0,0,0
1565981036640.63,38.25,0,0,0,0,0
1565981036656.25,37.08,0,0,0,0,0
1565981036671.88,36.16,0,0,0,0,0
1565981036687.5,35.43,0,0,0,0,0
1565981036703.13,34.77,0,0,0,0,0
1565981036718.75,33.99,0,0,0,0,0
1565981036734.38,32.9,0,0,0,0,0
1565981036750,31.3,0,0,0,0,0
1565981036765.63,29.13,0,0,0,0,0
1565981036781.25,26.42,0,0,0,0,0
1565981036796.88,23.4,0,0,0,0,0
1565981036812.5,20.28,0,0,0,0,0
1565981036828.13,17.23,0,0,0,0,0
1565981036843.75,14.27,0,0,0,0,0
1565981036859.38,11.21,0,0,0,0,0
1565981036875,7.75,0,0,0,0,0
1565981036890.63,3.56,0,0,0,0,0
1565981036906.25,-1.57,0,0,0,0,0
1565981036921.88,-7.6,0,0,0,0,0
1565981036937.5,-14.27,0,0,0,0,0
1565981036953.13,-21.02,0,0,0,0,0
1565981036968.75,-27.14,0,0,0,0,0
1565981036984.38,-31.86,0,0,0,0,0
1565981037000,-34.54,0,0,0,0,0
1565981037015.63,-34.83,0,0,0,0,0
1565981037031.25,-32.74,0,0,0,0,0
1565981037046.88,-28.68,0,0,0,0,0
1565981037062.5,-23.38,0,0,0,0,0
1565981037078.13,-17.74,0,0,0,0,0
1565981037093.75,-12.59,0,0,0,0,0
1565981037109.38,-8.61,0,0,0,0,0
1565981037125,-6.11,0,0,0,0,0
1565981037140.63,-5.18,0,0,0,0,0
1565981037156.25,-5.67,0,0,0,0,0
1565981037171.88,-7.35,0,0,0,0,0
1565981037187.5,-9.97,0,0,0,0,0
1565981037203.13,-13.23,0,0,0,0,0
1565981037218.75,-16.8,0,0,0,0,0
1565981037234.38,-20.3,0,0,0,0,0
1565981037250,-23.4,0,0,0,0,0
1565981037265.63,-25.9,0,0,0,0,0
1565981037281.25,-27.8,0,0,0,0,0
1565981037296.88,-29.26,0,0,0,0,0
1565981037312.5,-30.46,0,0,0,0,0
1565981037328.13,-31.42,0,0,0,0,0
1565981037343.75,-32.02,0,0,0,0,0
1565981037359.38,-32.05,0,0,0,0,0
1565981037375,-31.35,0,0,0,0,0
1565981037390.63,-29.94,0,0,0,0,0
1565981037406.25,-28,0,0,0,0,0
1565981037421.88,-25.82,0,0,0,0,0
1565981037437.5,-23.64,0,0,0,0,0
1565981037453.13,-21.59,0,0,0,0,0
1565981037468.75,-19.66,0,0,0,0,0
1565981037484.38,-17.76,0,0,0,0,0
1565981037500,-15.78,0,0,0,0,0
1565981037515.63,-13.63,0,0,0,0,0
1565981037531.25,-11.22,0,0,0,0,0
1565981037546.88,-8.52,0,0,0,0,0
1565981037562.5,-5.59,0,0,0,0,0
1565981037578.13,-2.59,0,0,0,0,0
1565981037593.75,0.21,0,0,0,0,0
1565981037609.38,2.49,0,0,0,0,0
1565981037625,4.01,0,0,0,0,0
1565981037640.63,4.68,0,0,0,0,0
1565981037656.25,4.7,0,0,0,0,0
1565981037671.88,4.46,0,0,0,0,0
1565981037687.5,4.59,0,0,0,0,0
1565981037703.13,5.74,0,0,0,0,0
1565981037718.75,8.43,0,0,0,0,0
1565981037734.38,12.92,0,0,0,0,0
1565981037750,19.01,0,0,0,0,0
1565981037765.63,26.17,0,0,0,0,0
1565981037781.25,33.62,0,0,0,0,0
1565981037796.88,40.59,0,0,0,0,0
1565981037812.5,46.48,0,0,0,0,0
1565981037828.13,50.97,0,0,0,0,0
1565981037843.75,53.98,0,0,0,0,0
1565981037859.38,55.58,0,0,0,0,0
1565981037875,55.87,0,0,0,0,0
1565981037890.63,55,0,0,0,0,0
1565981037906.25,53.16,0,0,0,0,0
1565981037921.88,50.6,0,0,0,0,0
1565981037937.5,47.64,0,0,0,0,0
1565981037953.13,44.56,0,0,0,0,0
1565981037968.75,41.57,0,0,0,0,0
1565981037984.38,38.71,0,0,0,0,0
1565981038000,35.9,0,0,0,0,0
1565981038015.63,33.01,0,0,0,0,0
1565981038031.25,29.99,0,0,0,0,0
1565981038046.88,26.9,0,0,0,0,0
1565981038062.5,23.91,0,0,0,0,0
1565981038078.13,21.27,0,0,0,0,0
1565981038093.75,19.1,0,0,0,0,0
1565981038109.38,17.33,0,0,0,0,0
1565981038125,15.73,0,0,0,0,0
1565981038140.63,13.92,0,0,0,0,0
1565981038156.25,11.53,0,0,0,0,0
1565981038171.88,8.34,0,0,0,0,0
1565981038187.5,4.33,0,0,0,0,0
1565981038203.13,-0.3,0,0,0,0,0
1565981038218.75,-5.21,0,0,0,0,0
1565981038234.38,-10.09,0,0,0,0,0
1565981038250,-14.75,0,0,0,0,0
1565981038265.63,-19.19,0,0,0,0,0
1565981038281.25,-23.64,0,0,0,0,0
1565981038296.88,-28.44,0,0,0,0,0
1565981038312.5,-33.87,0,0,0,0,0
1565981038328.13,-40.02,0,0,0,0,0
1565981038343.75,-46.65,0,0,0,0,0
1565981038359.38,-53.21,0,0,0,0,0
1565981038375,-58.9,0,0,0,0,0
1565981038390.63,-62.94,0,0,0,0,0
1565981038406.25,-64.72,0,0,0,0,0
1565981038421.88,-63.93,0,0,0,0,0
1565981038437.5,-60.68,0,0,0,0,0
1565981038453.13,-55.34,0,0,0,0,0
1565981038468.75,-48.58,0,0,0,0,0
1565981038484.38,-41.16,0,0,0,0,0
1565981038500,-33.81,0,0,0,0,0
1565981038515.63,-27.19,0,0,0,0,0
1565981038531.25,-21.72,0,0,0,0,0
1565981038546.88,-17.62,0,0,0,0,0
1565981038562.5,-14.87,0,0,0,0,0
1565981038578.13,-13.26,0,0,0,0,0
1565981038593.75,-12.44,0,0,0,0,0
1565981038609.38,-12.01,0,0,0,0,0
1565981038625,-11.58,0,0,0,0,0
1565981038640.63,-10.86,0,0,0,0,0
1565981038656.25,-9.74,0,0,0,0,0
1565981038671.88,-8.2,0,0,0,0,0
1565981038687.5,-6.34,0,0,0,0,0
1565981038703.13,-4.24,0,0,0,0,0
1565981038718.75,-1.89,0,0,0,0,0
1565981038734.38,0.78,0,0,0,0,0
1565981038750,3.9,0,0,0,0,0
1565981038765.63,7.58,0,0,0,0,0
1565981038781.25,11.85,0,0,0,0,0
1565981038796.88,16.59,0,0,0,0,0
1565981038812.5,21.52,0,0,0,0,0
1565981038828.13,26.3,0,0,0,0,0
1565981038843.75,30.51,0,0,0,0,0
1565981038859.38,33.78,0,0,0,0,0
1565981038875,35.89,0,0,0,0,0
1565981038890.63,36.78,0,0,0,0,0
1565981038906.25,36.59,0,0,0,0,0
1565981038921.88,35.56,0,0,0,0,0
1565981038937.5,33.96,0,0,0,0,0
1565981038953.13,32.01,0,0,0,0,0
1565981038968.75,29.89,0,0,0,0,0
1565981038984.38,27.65,0,0,0,0,0
1565981039000,25.33,0,0,0,0,0
1565981039015.63,22.91,0,0,0,0,0
1565981039031.25,20.34,0,0,0,0,0
1565981039046.88,17.52,0,0,0,0,0
1565981039062.5,14.36,0,0,0,0,0
1565981039078.13,10.79,0,0,0,0,0
1565981039093.75,6.85,0,0,0,0,0
1565981039109.38,2.74,0,0,0,0,0
1565981039125,-1.11,0,0,0,0,0
1565981039140.63,-4.06,0,0,0,0,0
1565981039156.25,-5.39,0,0,0,0,0
1565981039171.88,-4.5,0,0,0,0,0
1565981039187.5,-1.19,0,0,0,0,0
1565981039203.13,4.24,0,0,0,0,0
1565981039218.75,11.02,0,0,0,0,0
1565981039234.38,18.11,0,0,0,0,0
1565981039250,24.57,0,0,0,0,0
1565981039265.63,29.74,0,0,0,0,0
1565981039281.25,33.38,0,0,0,0,0
1565981039296.88,35.5,0,0,0,0,0
1565981039312.5,36.18,0,0,0,0,0
1565981039328.13,35.43,0,0,0,0,0
1565981039343.75,33.19,0,0,0,0,0
1565981039359.38,29.48,0,0,0,0,0
1565981039375,24.54,0,0,0,0,0
1565981039390.63,18.85,0,0,0,0,0
1565981039406.25,12.95,0,0,0,0,0
1565981039421.88,7.29,0,0,0,0,0
1565981039437.5,2.08,0,0,0,0,0
1565981039453.13,-2.63,0,0,0,0,0
1565981039468.75,-6.9,0,0,0,0,0
1565981039484.38,-10.75,0,0,0,0,0
1565981039500,-14.14,0,0,0,0,0
1565981039515.63,-17.06,0,0,0,0,0
1565981039531.25,-19.58,0,0,0,0,0
1565981039546.88,-21.9,0,0,0,0,0
1565981039562.5,-24.28,0,0,0,0,0
1565981039578.13,-26.92,0,0,0,0,0
1565981039593.75,-29.84,0,0,0,0,0
1565981039609.38,-32.87,0,0,0,0,0
1565981039625,-35.77,0,0,0,0,0
1565981039640.63,-38.32,0,0,0,0,0
1565981039656.25,-40.44,0,0,0,0,0
1565981039671.88,-42.23,0,0,0,0,0
1565981039687.5,-43.9,0,0,0,0,0
1565981039703.13,-45.64,0,0,0,0,0
1565981039718.75,-47.58,0,0,0,0,0
1565981039734.38,-49.72,0,0,0,0,0
1565981039750,-52,0,0,0,0,0
1565981039765.63,-54.32,0,0,0,0,0
1565981039781.25,-56.57,0,0,0,0,0
1565981039796.88,-58.52,0,0,0,0,0
1565981039812.5,-59.87,0,0,0,0,0
1565981039828.13,-60.08,0,0,0,0,0
1565981039843.75,-58.55,0,0,0,0,0
1565981039859.38,-54.71,0,0,0,0,0
1565981039875,-48.26,0,0,0,0,0
1565981039890.63,-39.35,0,0,0,0,0
1565981039906.25,-28.56,0,0,0,0,0
1565981039921.88,-16.8,0,0,0,0,0
1565981039937.5,-5.02,0,0,0,0,0
1565981039953.13,6.02,0,0,0,0,0
1565981039968.75,15.85,0,0,0,0,0
1565981039984.38,24.29,0,0,0,0,0
1565981040000,31.35,0,0,0,0,0
1565981040015.63,37.08,0,0,0,0,0
1565981040031.25,41.53,0,0,0,0,0
1565981040046.88,44.74,0,0,0,0,0
1565981040062.5,46.77,0,0,0,0,0
1565981040078.13,47.75,0,0,0,0,0
1565981040093.75,47.89,0,0,0,0,0
1565981040109.38,47.44,0,0,0,0,0
1565981040125,46.63,0,0,0,0,0
1565981040140.63,45.61,0,0,0,0,0
1565981040156.25,44.47,0,0,0,0,0
1565981040171.88,43.23,0,0,0,0,0
1565981040187.5,41.89,0,0,0,0,0
1565981040203.13,40.5,0,0,0,0,0
1565981040218.75,39.1,0,0,0,0,0
1565981040234.38,37.79,0,0,0,0,0
1565981040250,36.56,0,0,0,0,0
1565981040265.63,35.39,0,0,0,0,0
1565981040281.25,34.13,0,0,0,0,0
1565981040296.88,32.62,0,0,0,0,0
1565981040312.5,30.71,0,0,0,0,0
1565981040328.13,28.42,0,0,0,0,0
1565981040343.75,25.83,0,0,0,0,0
1565981040359.38,23.11,0,0,0,0,0
1565981040375,20.43,0,0,0,0,0
1565981040390.63,17.83,0,0,0,0,0
1565981040406.25,15.23,0,0,0,0,0
1565981040421.88,12.46,0,0,0,0,0
1565981040437.5,9.33,0,0,0,0,0
1565981040453.13,5.73,0,0,0,0,0
1565981040468.75,1.66,0,0,0,0,0
1565981040484.38,-2.67,0,0,0,0,0
1565981040500,-6.9,0,0,0,0,0
1565981040515.63,-10.51,0,0,0,0,0
1565981040531.25,-12.99,0,0,0,0,0
1565981040546.88,-13.98,0,0,0,0,0
1565981040562.5,-13.36,0,0,0,0,0
1565981040578.13,-11.27,0,0,0,0,0
1565981040593.75,-8.16,0,0,0,0,0
1565981040609.38,-4.51,0,0,0,0,0
1565981040625,-0.89,0,0,0,0,0
1565981040640.63,2.31,0,0,0,0,0
1565981040656.25,4.74,0,0,0,0,0
1565981040671.88,6.17,0,0,0,0,0
1565981040687.5,6.42,0,0,0,0,0
1565981040703.13,5.4,0,0,0,0,0
1565981040718.75,3.12,0,0,0,0,0
1565981040734.38,-0.23,0,0,0,0,0
1565981040750,-4.4,0,0,0,0,0
1565981040765.63,-9.08,0,0,0,0,0
1565981040781.25,-13.98,0,0,0,0,0
1565981040796.88,-18.88,0,0,0,0,0
1565981040812.5,-23.63,0,0,0,0,0
1565981040828.13,-28.11,0,0,0,0,0
1565981040843.75,-32.14,0,0,0,0,0
1565981040859.38,-35.53,0,0,0,0,0
1565981040875,-38.08,0,0,0,0,0
1565981040890.63,-39.65,0,0,0,0,0
1565981040906.25,-40.24,0,0,0,0,0
1565981040921.88,-39.99,0,0,0,0,0
1565981040937.5,-39.11,0,0,0,0,0
1565981040953.13,-37.89,0,0,0,0,0
1565981040968.75,-36.57,0,0,0,0,0
1565981040984.38,-35.33,0,0,0,0,0
1565981041000,-34.26,0,0,0,0,0
1565981041015.63,-33.34,0,0,0,0,0
1565981041031.25,-32.47,0,0,0,0,0
1565981041046.88,-31.54,0,0,0,0,0
1565981041062.5,-30.4,0,0,0,0,0
1565981041078.13,-28.88,0,0,0,0,0
1565981041093.75,-26.88,0,0,0,0,0
1565981041109.38,-24.35,0,0,0,0,0
1565981041125,-21.41,0,0,0,0,0
1565981041140.63,-18.33,0,0,0,0,0
1565981041156.25,-15.47,0,0,0,0,0
1565981041171.88,-13.16,0,0,0,0,0
1565981041187.5,-11.5,0,0,0,0,0
1565981041203.13,-10.19,0,0,0,0,0
1565981041218.75,-8.57,0,0,0,0,0
1565981041234.38,-5.87,0,0,0,0,0
1565981041250,-1.47,0,0,0,0,0
1565981041265.63,4.81,0,0,0,0,0
1565981041281.25,12.59,0,0,0,0,0
1565981041296.88,21.1,0,0,0,0,0
1565981041312.5,29.44,0,0,0,0,0
1565981041328.13,36.91,0,0,0,0,0
1565981041343.75,43.11,0,0,0,0,0
1565981041359.38,47.92,0,0,0,0,0
1565981041375,51.41,0,0,0,0,0
1565981041390.63,53.68,0,0,0,0,0
1565981041406.25,54.81,0,0,0,0,0
1565981041421.88,54.85,0,0,0,0,0
1565981041437.5,53.9,0,0,0,0,0
1565981041453.13,52.15,0,0,0,0,0
1565981041468.75,49.79,0,0,0,0,0
1565981041484.38,47.06,0,0,0,0,0
1565981041500,44.13,0,0,0,0,0
1565981041515.63,41.11,0,0,0,0,0
1565981041531.25,38.1,0,0,0,0,0
1565981041546.88,35.13,0,0,0,0,0
1565981041562.5,32.33,0,0,0,0,0
1565981041578.13,29.83,0,0,0,0,0
1565981041593.75,27.79,0,0,0,0,0
1565981041609.38,26.37,0,0,0,0,0
1565981041625,25.61,0,0,0,0,0
1565981041640.63,25.41,0,0,0,0,0
1565981041656.25,25.54,0,0,0,0,0
1565981041671.88,25.67,0,0,0,0,0
1565981041687.5,25.45,0,0,0,0,0
1565981041703.13,24.57,0,0,0,0,0
1565981041718.75,22.82,0,0,0,0,0
1565981041734.38,20.05,0,0,0,0,0
1565981041750,16.29,0,0,0,0,0
1565981041765.63,11.67,0,0,0,0,0
1565981041781.25,6.47,0,0,0,0,0
1565981041796.88,0.98,0,0,0,0,0
1565981041812.5,-4.53,0,0,0,0,0
1565981041828.13,-9.92,0,0,0,0,0
1565981041843.75,-15.17,0,0,0,0,0
1565981041859.38,-20.45,0,0,0,0,0
1565981041875,-25.99,0,0,0,0,0
1565981041890.63,-32.05,0,0,0,0,0
1565981041906.25,-38.76,0,0,0,0,0
1565981041921.88,-45.98,0,0,0,0,0
1565981041937.5,-53.24,0,0,0,0,0
1565981041953.13,-59.75,0,0,0,0,0
1565981041968.75,-64.58,0,0,0,0,0
1565981041984.38,-66.91,0,0,0,0,0
1565981042000,-66.38,0,0,0,0,0
1565981042015.63,-63.14,0,0,0,0,0
1565981042031.25,-57.85,0,0,0,0,0
1565981042046.88,-51.49,0,0,0,0,0
1565981042062.5,-45.01,0,0,0,0,0
1565981042078.13,-39.15,0,0,0,0,0
1565981042093.75,-34.26,0,0,0,0,0
1565981042109.38,-30.43,0,0,0,0,0
1565981042125,-27.61,0,0,0,0,0
1565981042140.63,-25.7,0,0,0,0,0
1565981042156.25,-24.66,0,0,0,0,0
1565981042171.88,-24.44,0,0,0,0,0
1565981042187.5,-24.92,0,0,0,0,0
1565981042203.13,-25.8,0,0,0,0,0
1565981042218.75,-26.69,0,0,0,0,0
1565981042234.38,-27.11,0,0,0,0,0
1565981042250,-26.68,0,0,0,0,0
1565981042265.63,-25.2,0,0,0,0,0
1565981042281.25,-22.69,0,0,0,0,0
1565981042296.88,-19.32,0,0,0,0,0
1565981042312.5,-15.3,0,0,0,0,0
1565981042328.13,-10.76,0,0,0,0,0
1565981042343.75,-5.71,0,0,0,0,0
1565981042359.38,-0.17,0,0,0,0,0
1565981042375,5.76,0,0,0,0,0
1565981042390.63,11.77,0,0,0,0,0
1565981042406.25,17.44,0,0,0,0,0
1565981042421.88,22.31,0,0,0,0,0
1565981042437.5,26.08,0,0,0,0,0
1565981042453.13,28.69,0,0,0,0,0
1565981042468.75,30.26,0,0,0,0,0
1565981042484.38,31.1,0,0,0,0,0
1565981042500,31.46,0,0,0,0,0
1565981042515.63,31.51,0,0,0,0,0
1565981042531.25,31.24,0,0,0,0,0
1565981042546.88,30.53,0,0,0,0,0
1565981042562.5,29.2,0,0,0,0,0
1565981042578.13,27.11,0,0,0,0,0
1565981042593.75,24.2,0,0,0,0,0
1565981042609.38,20.47,0,0,0,0,0
1565981042625,16.1,0,0,0,0,0
1565981042640.63,11.38,0,0,0,0,0
1565981042656.25,6.88,0,0,0,0,0
1565981042671.88,3.25,0,0,0,0,0
1565981042687.5,1.18,0,0,0,0,0
1565981042703.13,1.15,0,0,0,0,0
1565981042718.75,3.32,0,0,0,0,0
1565981042734.38,7.44,0,0,0,0,0
1565981042750,12.94,0,0,0,0,0
1565981042765.63,19.12,0,0,0,0,0
1565981042781.25,25.31,0,0,0,0,0
1565981042796.88,31,0,0,0,0,0
1565981042812.5,35.83,0,0,0,0,0
1565981042828.13,39.58,0,0,0,0,0
1565981042843.75,42.04,0,0,0,0,0
1565981042859.38,43.1,0,0,0,0,0
1565981042875,42.72,0,0,0,0,0
1565981042890.63,40.96,0,0,0,0,0
1565981042906.25,37.99,0,0,0,0,0
1565981042921.88,34.06,0,0,0,0,0
1565981042937.5,29.48,0,0,0,0,0
1565981042953.13,24.57,0,0,0,0,0
1565981042968.75,19.72,0,0,0,0,0
1565981042984.38,15.18,0,0,0,0,0
1565981043000,11.12,0,0,0,0,0
1565981043015.63,7.52,0,0,0,0,0
1565981043031.25,4.22,0,0,0,0,0
1565981043046.88,1.04,0,0,0,0,0
1565981043062.5,-2.17,0,0,0,0,0
1565981043078.13,-5.45,0,0,0,0,0
1565981043093.75,-8.73,0,0,0,0,0
1565981043109.38,-11.96,0,0,0,0,0
1565981043125,-15.11,0,0,0,0,0
1565981043140.63,-18.25,0,0,0,0,0
1565981043156.25,-21.44,0,0,0,0,0
1565981043171.88,-24.79,0,0,0,0,0
1565981043187.5,-28.34,0,0,0,0,0
1565981043203.13,-32.07,0,0,0,0,0
1565981043218.75,-35.89,0,0,0,0,0
1565981043234.38,-39.69,0,0,0,0,0
1565981043250,-43.36,0,0,0,0,0
1565981043265.63,-46.84,0,0,0,0,0
1565981043281.25,-50.13,0,0,0,0,0
1565981043296.88,-53.36,0,0,0,0,0
1565981043312.5,-56.67,0,0,0,0,0
1565981043328.13,-60.2,0,0,0,0,0
1565981043343.75,-63.9,0,0,0,0,0
1565981043359.38,-67.46,0,0,0,0,0
1565981043375,-70.22,0,0,0,0,0
1565981043390.63,-71.32,0,0,0,0,0
1565981043406.25,-69.94,0,0,0,0,0
1565981043421.88,-65.6,0,0,0,0,0
1565981043437.5,-58.38,0,0,0,0,0
1565981043453.13,-48.87,0,0,0,0,0
1565981043468.75,-37.96,0,0,0,0,0
1565981043484.38,-26.53,0,0,0,0,0
1565981043500,-15.23,0,0,0,0,0
1565981043515.63,-4.35,0,0,0,0,0
1565981043531.25,5.95,0,0,0,0,0
1565981043546.88,15.52,0,0,0,0,0
1565981043562.5,24.08,0,0,0,0,0
1565981043578.13,31.33,0,0,0,0,0
1565981043593.75,37.08,0,0,0,0,0
1565981043609.38,41.36,0,0,0,0,0
1565981043625,44.39,0,0,0,0,0
1565981043640.63,46.45,0,0,0,0,0
1565981043656.25,47.74,0,0,0,0,0
1565981043671.88,48.28,0,0,0,0,0
1565981043687.5,48.04,0,0,0,0,0
1565981043703.13,47.05,0,0,0,0,0
1565981043718.75,45.53,0,0,0,0,0
1565981043734.38,43.85,0,0,0,0,0
1565981043750,42.46,0,0,0,0,0
1565981043765.63,41.65,0,0,0,0,0
1565981043781.25,41.47,0,0,0,0,0
1565981043796.88,41.67,0,0,0,0,0
1565981043812.5,41.87,0,0,0,0,0
1565981043828.13,41.73,0,0,0,0,0
1565981043843.75,41.04,0,0,0,0,0
1565981043859.38,39.83,0,0,0,0,0
1565981043875,38.23,0,0,0,0,0
1565981043890.63,36.39,0,0,0,0,0
1565981043906.25,34.33,0,0,0,0,0
1565981043921.88,32.01,0,0,0,0,0
1565981043937.5,29.34,0,0,0,0,0
1565981043953.13,26.34,0,0,0,0,0
1565981043968.75,23.11,0,0,0,0,0
1565981043984.38,19.87,0,0,0,0,0
1565981044000,16.76,0,0,0,0,0
1565981044015.63,13.84,0,0,0,0,0
1565981044031.25,11.02,0,0,0,0,0
1565981044046.88,8.1,0,0,0,0,0
1565981044062.5,4.81,0,0,0,0,0
1565981044078.13,0.9,0,0,0,0,0
1565981044093.75,-3.81,0,0,0,0,0
1565981044109.38,-9.34,0,0,0,0,0
1565981044125,-15.41,0,0,0,0,0
1565981044140.63,-21.45,0,0,0,0,0
1565981044156.25,-26.69,0,0,0,0,0
1565981044171.88,-30.37,0,0,0,0,0
1565981044187.5,-31.98,0,0,0,0,0
1565981044203.13,-31.41,0,0,0,0,0
1565981044218.75,-28.96,0,0,0,0,0
1565981044234.38,-25.2,0,0,0,0,0
1565981044250,-20.8,0,0,0,0,0
1565981044265.63,-16.41,0,0,0,0,0
1565981044281.25,-12.53,0,0,0,0,0
1565981044296.88,-9.57,0,0,0,0,0
1565981044312.5,-7.82,0,0,0,0,0
1565981044328.13,-7.43,0,0,0,0,0
1565981044343.75,-8.42,0,0,0,0,0
1565981044359.38,-10.64,0,0,0,0,0
1565981044375,-13.81,0,0,0,0,0
1565981044390.63,-17.6,0,0,0,0,0
1565981044406.25,-21.68,0,0,0,0,0
1565981044421.88,-25.74,0,0,0,0,0
1565981044437.5,-29.49,0,0,0,0,0
1565981044453.13,-32.68,0,0,0,0,0
1565981044468.75,-35.1,0,0,0,0,0
1565981044484.38,-36.66,0,0,0,0,0
1565981044500,-37.4,0,0,0,0,0
1565981044515.63,-37.41,0,0,0,0,0
1565981044531.25,-36.79,0,0,0,0,0
1565981044546.88,-35.69,0,0,0,0,0
1565981044562.5,-34.18,0,0,0,0,0
1565981044578.13,-32.38,0,0,0,0,0
1565981044593.75,-30.41,0,0,0,0,0
1565981044609.38,-28.39,0,0,0,0,0
1565981044625,-26.42,0,0,0,0,0
1565981044640.63,-24.49,0,0,0,0,0
1565981044656.25,-22.48,0,0,0,0,0
1565981044671.88,-20.19,0,0,0,0,0
1565981044687.5,-17.46,0,0,0,0,0
1565981044703.13,-14.24,0,0,0,0,0
1565981044718.75,-10.72,0,0,0,0,0
1565981044734.38,-7.22,0,0,0,0,0
1565981044750,-4.13,0,0,0,0,0
1565981044765.63,-1.68,0,0,0,0,0
1565981044781.25,0.05,0,0,0,0,0
1565981044796.88,1.17,0,0,0,0,0
1565981044812.5,1.89,0,0,0,0,0
1565981044828.13,2.4,0,0,0,0,0
1565981044843.75,2.96,0,0,0,0,0
1565981044859.38,3.87,0,0,0,0,0
1565981044875,5.48,0,0,0,0,0
1565981044890.63,8.18,0,0,0,0,0
1565981044906.25,12.25,0,0,0,0,0
1565981044921.88,17.69,0,0,0,0,0
1565981044937.5,24.2,0,0,0,0,0
1565981044953.13,31.17,0,0,0,0,0
1565981044968.75,37.88,0,0,0,0,0
1565981044984.38,43.72,0,0,0,0,0
1565981045000,48.3,0,0,0,0,0
1565981045015.63,51.48,0,0,0,0,0
1565981045031.25,53.33,0,0,0,0,0
1565981045046.88,53.95,0,0,0,0,0
1565981045062.5,53.4,0,0,0,0,0
1565981045078.13,51.74,0,0,0,0,0
1565981045093.75,49.11,0,0,0,0,0
1565981045109.38,45.75,0,0,0,0,0
1565981045125,42.04,0,0,0,0,0
1565981045140.63,38.39,0,0,0,0,0
1565981045156.25,35.06,0,0,0,0,0
1565981045171.88,32.14,0,0,0,0,0
1565981045187.5,29.55,0,0,0,0,0
1565981045203.13,27.12,0,0,0,0,0
1565981045218.75,24.83,0,0,0,0,0
1565981045234.38,22.81,0,0,0,0,0
1565981045250,21.23,0,0,0,0,0
1565981045265.63,20.26,0,0,0,0,0
1565981045281.25,19.81,0,0,0,0,0
1565981045296.88,19.58,0,0,0,0,0
1565981045312.5,19.1,0,0,0,0,0
1565981045328.13,17.86,0,0,0,0,0
1565981045343.75,15.54,0,0,0,0,0
1565981045359.38,12.02,0,0,0,0,0
1565981045375,7.45,0,0,0,0,0
1565981045390.63,2.12,0,0,0,0,0
1565981045406.25,-3.63,0,0,0,0,0
1565981045421.88,-9.46,0,0,0,0,0
1565981045437.5,-15.14,0,0,0,0,0
1565981045453.13,-20.53,0,0,0,0,0
1565981045468.75,-25.64,0,0,0,0,0
1565981045484.38,-30.59,0,0,0,0,0
1565981045500,-35.61,0,0,0,0,0
1565981045515.63,-40.94,0,0,0,0,0
1565981045531.25,-46.72,0,0,0,0,0
1565981045546.88,-52.8,0,0,0,0,0
1565981045562.5,-58.72,0,0,0,0,0
1565981045578.13,-63.68,0,0,0,0,0
1565981045593.75,-66.78,0,0,0,0,0
1565981045609.38,-67.32,0,0,0,0,0
1565981045625,-65.04,0,0,0,0,0
1565981045640.63,-60.25,0,0,0,0,0
1565981045656.25,-53.72,0,0,0,0,0
1565981045671.88,-46.42,0,0,0,0,0
1565981045687.5,-39.24,0,0,0,0,0
1565981045703.13,-32.81,0,0,0,0,0
1565981045718.75,-27.4,0,0,0,0,0
1565981045734.38,-23.04,0,0,0,0,0
1565981045750,-19.65,0,0,0,0,0
1565981045765.63,-17.14,0,0,0,0,0
1565981045781.25,-15.46,0,0,0,0,0
1565981045796.88,-14.59,0,0,0,0,0
1565981045812.5,-14.43,0,0,0,0,0
1565981045828.13,-14.73,0,0,0,0,0
1565981045843.75,-15.1,0,0,0,0,0
1565981045859.38,-15.02,0,0,0,0,0
1565981045875,-14.08,0,0,0,0,0
1565981045890.63,-12.05,0,0,0,0,0
1565981045906.25,-9.01,0,0,0,0,0
1565981045921.88,-5.33,0,0,0,0,0
1565981045937.5,-1.5,0,0,0,0,0
1565981045953.13,2.09,0,0,0,0,0
1565981045968.75,5.26,0,0,0,0,0
1565981045984.38,8.06,0,0,0,0,0
1565981046000,10.63,0,0,0,0,0
1565981046015.63,13.06,0,0,0,0,0
1565981046031.25,15.26,0,0,0,0,0
1565981046046.88,16.91,0,0,0,0,0
1565981046062.5,17.6,0,0,0,0,0
1565981046078.13,17.01,0,0,0,0,0
1565981046093.75,15.08,0,0,0,0,0
1565981046109.38,12,0,0,0,0,0
1565981046125,8.16,0,0,0,0,0
1565981046140.63,3.96,0,0,0,0,0
1565981046156.25,-0.3,0,0,0,0,0
1565981046171.88,-4.56,0,0,0,0,0
1565981046187.5,-8.88,0,0,0,0,0
1565981046203.13,-13.36,0,0,0,0,0
1565981046218.75,-17.98,0,0,0,0,0
1565981046234.38,-22.64,0,0,0,0,0
1565981046250,-27.12,0,0,0,0,0
1565981046265.63,-31.19,0,0,0,0,0
1565981046281.25,-34.58,0,0,0,0,0
1565981046296.88,-36.93,0,0,0,0,0
1565981046312.5,-37.69,0,0,0,0,0
1565981046328.13,-36.14,0,0,0,0,0
1565981046343.75,-31.6,0,0,0,0,0
1565981046359.38,-23.66,0,0,0,0,0
1565981046375,-12.46,0,0,0,0,0
1565981046390.63,1.29,0,0,0,0,0
1565981046406.25,16.45,0,0,0,0,0
1565981046421.88,31.75,0,0,0,0,0
1565981046437.5,46.05,0,0,0,0,0
1565981046453.13,58.55,0,0,0,0,0
1565981046468.75,68.72,0,0,0,0,0
1565981046484.38,76.23,0,0,0,0,0
1565981046500,80.82,0,0,0,0,0
1565981046515.63,82.36,0,0,0,0,0
1565981046531.25,80.93,0,0,0,0,0
1565981046546.88,76.91,0,0,0,0,0
1565981046562.5,70.99,0,0,0,0,0
1565981046578.13,63.99,0,0,0,0,0
1565981046593.75,56.72,0,0,0,0,0
1565981046609.38,49.74,0,0,0,0,0
1565981046625,43.29,0,0,0,0,0
1565981046640.63,37.4,0,0,0,0,0
1565981046656.25,31.99,0,0,0,0,0
1565981046671.88,27,0,0,0,0,0
1565981046687.5,22.42,0,0,0,0,0
1565981046703.13,18.24,0,0,0,0,0
1565981046718.75,14.45,0,0,0,0,0
1565981046734.38,10.92,0,0,0,0,0
1565981046750,7.53,0,0,0,0,0
1565981046765.63,4.1,0,0,0,0,0
1565981046781.25,0.55,0,0,0,0,0
1565981046796.88,-3.13,0,0,0,0,0
1565981046812.5,-6.94,0,0,0,0,0
1565981046828.13,-10.8,0,0,0,0,0
1565981046843.75,-14.61,0,0,0,0,0
1565981046859.38,-18.26,0,0,0,0,0
1565981046875,-21.58,0,0,0,0,0
1565981046890.63,-24.4,0,0,0,0,0
1565981046906.25,-26.61,0,0,0,0,0
1565981046921.88,-28.2,0,0,0,0,0
1565981046937.5,-29.3,0,0,0,0,0
1565981046953.13,-30.15,0,0,0,0,0
1565981046968.75,-31.05,0,0,0,0,0
1565981046984.38,-32.13,0,0,0,0,0
1565981047000,-33.4,0,0,0,0,0
1565981047015.63,-34.65,0,0,0,0,0
1565981047031.25,-35.57,0,0,0,0,0
1565981047046.88,-35.94,0,0,0,0,0
1565981047062.5,-35.63,0,0,0,0,0
1565981047078.13,-34.69,0,0,0,0,0
1565981047093.75,-33.24,0,0,0,0,0
1565981047109.38,-31.5,0,0,0,0,0
1565981047125,-29.7,0,0,0,0,0
1565981047140.63,-28.06,0,0,0,0,0
1565981047156.25,-26.69,0,0,0,0,0
1565981047171.88,-25.55,0,0,0,0,0
1565981047187.5,-24.29,0,0,0,0,0
1565981047203.13,-22.36,0,0,0,0,0
1565981047218.75,-19.11,0,0,0,0,0
1565981047234.38,-14.1,0,0,0,0,0
1565981047250,-7.29,0,0,0,0,0
1565981047265.63,0.91,0,0,0,0,0
1565981047281.25,9.75,0,0,0,0,0
1565981047296.88,18.42,0,0,0,0,0
1565981047312.5,26.28,0,0,0,0,0
1565981047328.13,32.98,0,0,0,0,0
1565981047343.75,38.44,0,0,0,0,0
1565981047359.38,42.67,0,0,0,0,0
1565981047375,45.69,0,0,0,0,0
1565981047390.63,47.54,0,0,0,0,0
1565981047406.25,48.25,0,0,0,0,0
1565981047421.88,47.9,0,0,0,0,0
1565981047437.5,46.69,0,0,0,0,0
1565981047453.13,44.87,0,0,0,0,0
1565981047468.75,42.69,0,0,0,0,0
1565981047484.38,40.39,0,0,0,0,0
1565981047500,38.16,0,0,0,0,0
1565981047515.63,36.1,0,0,0,0,0
1565981047531.25,34.3,0,0,0,0,0
1565981047546.88,32.77,0,0,0,0,0
1565981047562.5,31.58,0,0,0,0,0
1565981047578.13,30.79,0,0,0,0,0
1565981047593.75,30.45,0,0,0,0,0
1565981047609.38,30.54,0,0,0,0,0
1565981047625,30.96,0,0,0,0,0
1565981047640.63,31.47,0,0,0,0,0
1565981047656.25,31.72,0,0,0,0,0
1565981047671.88,31.43,0,0,0,0,0
1565981047687.5,30.44,0,0,0,0,0
1565981047703.13,28.78,0,0,0,0,0
1565981047718.75,26.65,0,0,0,0,0
1565981047734.38,24.31,0,0,0,0,0
1565981047750,21.95,0,0,0,0,0
1565981047765.63,19.58,0,0,0,0,0
1565981047781.25,17.1,0,0,0,0,0
1565981047796.88,14.29,0,0,0,0,0
1565981047812.5,11,0,0,0,0,0
1565981047828.13,7.21,0,0,0,0,0
1565981047843.75,3.13,0,0,0,0,0
1565981047859.38,-0.92,0,0,0,0,0
1565981047875,-4.61,0,0,0,0,0
1565981047890.63,-7.83,0,0,0,0,0
1565981047906.25,-10.64,0,0,0,0,0
1565981047921.88,-13.33,0,0,0,0,0
1565981047937.5,-16.17,0,0,0,0,0
1565981047953.13,-19.29,0,0,0,0,0
1565981047968.75,-22.6,0,0,0,0,0
1565981047984.38,-25.81,0,0,0,0,0
1565981048000,-28.62,0,0,0,0,0
1565981048015.63,-30.89,0,0,0,0,0
1565981048031.25,-32.62,0,0,0,0,0
1565981048046.88,-33.99,0,0,0,0,0
1565981048062.5,-35.18,0,0,0,0,0
1565981048078.13,-36.31,0,0,0,0,0
1565981048093.75,-37.35,0,0,0,0,0
1565981048109.38,-38.24,0,0,0,0,0
1565981048125,-38.86,0,0,0,0,0
1565981048140.63,-39.17,0,0,0,0,0
1565981048156.25,-39.19,0,0,0,0,0
1565981048171.88,-39.03,0,0,0,0,0
1565981048187.5,-38.79,0,0,0,0,0
1565981048203.13,-38.56,0,0,0,0,0
1565981048218.75,-38.34,0,0,0,0,0
1565981048234.38,-38.06,0,0,0,0,0
1565981048250,-37.57,0,0,0,0,0
1565981048265.63,-36.79,0,0,0,0,0
1565981048281.25,-35.69,0,0,0,0,0
1565981048296.88,-34.39,0,0,0,0,0
1565981048312.5,-33.11,0,0,0,0,0
1565981048328.13,-32.04,0,0,0,0,0
1565981048343.75,-31.31,0,0,0,0,0
1565981048359.38,-30.93,0,0,0,0,0
1565981048375,-30.69,0,0,0,0,0
1565981048390.63,-30.23,0,0,0,0,0
1565981048406.25,-29.09,0,0,0,0,0
1565981048421.88,-26.79,0,0,0,0,0
1565981048437.5,-23,0,0,0,0,0
1565981048453.13,-17.63,0,0,0,0,0
1565981048468.75,-10.86,0,0,0,0,0
1565981048484.38,-3.12,0,0,0,0,0
1565981048500,5.05,0,0,0,0,0
1565981048515.63,13.14,0,0,0,0,0
1565981048531.25,20.7,0,0,0,0,0
1565981048546.88,27.41,0,0,0,0,0
1565981048562.5,33.02,0,0,0,0,0
1565981048578.13,37.34,0,0,0,0,0
1565981048593.75,40.29,0,0,0,0,0
1565981048609.38,41.88,0,0,0,0,0
1565981048625,42.27,0,0,0,0,0
1565981048640.63,41.72,0,0,0,0,0
1565981048656.25,40.53,0,0,0,0,0
1565981048671.88,38.92,0,0,0,0,0
1565981048687.5,37.02,0,0,0,0,0
1565981048703.13,34.88,0,0,0,0,0
1565981048718.75,32.55,0,0,0,0,0
1565981048734.38,30.16,0,0,0,0,0
1565981048750,27.95,0,0,0,0,0
1565981048765.63,26.2,0,0,0,0,0
1565981048781.25,25.18,0,0,0,0,0
1565981048796.88,24.95,0,0,0,0,0
1565981048812.5,25.37,0,0,0,0,0
1565981048828.13,26.14,0,0,0,0,0
1565981048843.75,26.87,0,0,0,0,0
1565981048859.38,27.28,0,0,0,0,0
1565981048875,27.32,0,0,0,0,0
1565981048890.63,27.07,0,0,0,0,0
1565981048906.25,26.67,0,0,0,0,0
1565981048921.88,26.17,0,0,0,0,0
1565981048937.5,25.45,0,0,0,0,0
1565981048953.13,24.21,0,0,0,0,0
1565981048968.75,22.21,0,0,0,0,0
1565981048984.38,19.3,0,0,0,0,0
1565981049000,15.64,0,0,0,0,0
1565981049015.63,11.59,0,0,0,0,0
1565981049031.25,7.61,0,0,0,0,0
1565981049046.88,4.06,0,0,0,0,0
1565981049062.5,1.09,0,0,0,0,0
1565981049078.13,-1.43,0,0,0,0,0
1565981049093.75,-3.76,0,0,0,0,0
1565981049109.38,-6.18,0,0,0,0,0
1565981049125,-8.85,0,0,0,0,0
1565981049140.63,-11.81,0,0,0,0,0
1565981049156.25,-15.02,0,0,0,0,0
1565981049171.88,-18.51,0,0,0,0,0
1565981049187.5,-22.34,0,0,0,0,0
1565981049203.13,-26.63,0,0,0,0,0
1565981049218.75,-31.47,0,0,0,0,0
1565981049234.38,-36.87,0,0,0,0,0
1565981049250,-42.7,0,0,0,0,0
1565981049265.63,-48.71,0,0,0,0,0
1565981049281.25,-54.55,0,0,0,0,0
1565981049296.88,-59.78,0,0,0,0,0
1565981049312.5,-63.92,0,0,0,0,0
1565981049328.13,-66.43,0,0,0,0,0
1565981049343.75,-66.93,0,0,0,0,0
1565981049359.38,-65.16,0,0,0,0,0
1565981049375,-61.21,0,0,0,0,0
1565981049390.63,-55.46,0,0,0,0,0
1565981049406.25,-48.49,0,0,0,0,0
1565981049421.88,-40.92,0,0,0,0,0
1565981049437.5,-33.23,0,0,0,0,0
1565981049453.13,-25.74,0,0,0,0,0
1565981049468.75,-18.6,0,0,0,0,0
1565981049484.38,-11.91,0,0,0,0,0
1565981049500,-5.76,0,0,0,0,0
1565981049515.63,-0.28,0,0,0,0,0
1565981049531.25,4.46,0,0,0,0,0
1565981049546.88,8.5,0,0,0,0,0
1565981049562.5,11.92,0,0,0,0,0
1565981049578.13,14.91,0,0,0,0,0
1565981049593.75,17.54,0,0,0,0,0
1565981049609.38,19.8,0,0,0,0,0
1565981049625,21.57,0,0,0,0,0
1565981049640.63,22.75,0,0,0,0,0
1565981049656.25,23.4,0,0,0,0,0
1565981049671.88,23.76,0,0,0,0,0
1565981049687.5,24.13,0,0,0,0,0
1565981049703.13,24.79,0,0,0,0,0
1565981049718.75,25.83,0,0,0,0,0
1565981049734.38,27.16,0,0,0,0,0
1565981049750,28.52,0,0,0,0,0
1565981049765.63,29.67,0,0,0,0,0
1565981049781.25,30.46,0,0,0,0,0
1565981049796.88,30.83,0,0,0,0,0
1565981049812.5,30.81,0,0,0,0,0
1565981049828.13,30.43,0,0,0,0,0
1565981049843.75,29.72,0,0,0,0,0
1565981049859.38,28.66,0,0,0,0,0
1565981049875,27.32,0,0,0,0,0
1565981049890.63,25.72,0,0,0,0,0
1565981049906.25,23.93,0,0,0,0,0
1565981049921.88,21.98,0,0,0,0,0
1565981049937.5,19.89,0,0,0,0,0
1565981049953.13,17.64,0,0,0,0,0
1565981049968.75,15.3,0,0,0,0,0
1565981049984.38,12.91,0,0,0,0,0
1565981050000,10.5,0,0,0,0,0
1565981050015.63,8.08,0,0,0,0,0
1565981050031.25,5.57,0,0,0,0,0
1565981050046.88,2.8,0,0,0,0,0
1565981050062.5,-0.36,0,0,0,0,0
1565981050078.13,-3.95,0,0,0,0,0
1565981050093.75,-7.83,0,0,0,0,0
1565981050109.38,-11.66,0,0,0,0,0
1565981050125,-14.95,0,0,0,0,0
1565981050140.63,-17.21,0,0,0,0,0
1565981050156.25,-18.09,0,0,0,0,0
1565981050171.88,-17.48,0,0,0,0,0
1565981050187.5,-15.54,0,0,0,0,0
1565981050203.13,-12.65,0,0,0,0,0
1565981050218.75,-9.28,0,0,0,0,0
1565981050234.38,-5.87,0,0,0,0,0
1565981050250,-2.75,0,0,0,0,0
1565981050265.63,-0.14,0,0,0,0,0
1565981050281.25,1.79,0,0,0,0,0
1565981050296.88,2.9,0,0,0,0,0
1565981050312.5,2.99,0,0,0,0,0
1565981050328.13,1.93,0,0,0,0,0
1565981050343.75,-0.31,0,0,0,0,0
1565981050359.38,-3.6,0,0,0,0,0
1565981050375,-7.66,0,0,0,0,0
1565981050390.63,-12.16,0,0,0,0,0
1565981050406.25,-16.77,0,0,0,0,0
1565981050421.88,-21.24,0,0,0,0,0
1565981050437.5,-25.4,0,0,0,0,0
1565981050453.13,-29.12,0,0,0,0,0
1565981050468.75,-32.31,0,0,0,0,0
1565981050484.38,-34.87,0,0,0,0,0
1565981050500,-36.77,0,0,0,0,0
1565981050515.63,-37.99,0,0,0,0,0
1565981050531.25,-38.54,0,0,0,0,0
1565981050546.88,-38.48,0,0,0,0,0
1565981050562.5,-37.89,0,0,0,0,0
1565981050578.13,-36.94,0,0,0,0,0
1565981050593.75,-35.82,0,0,0,0,0
1565981050609.38,-34.69,0,0,0,0,0
1565981050625,-33.66,0,0,0,0,0
1565981050640.63,-32.69,0,0,0,0,0
1565981050656.25,-31.69,0,0,0,0,0
1565981050671.88,-30.53,0,0,0,0,0
1565981050687.5,-29.06,0,0,0,0,0
1565981050703.13,-27.21,0,0,0,0,0
1565981050718.75,-24.94,0,0,0,0,0
1565981050734.38,-22.28,0,0,0,0,0
1565981050750,-19.38,0,0,0,0,0
1565981050765.63,-16.46,0,0,0,0,0
1565981050781.25,-13.89,0,0,0,0,0
1565981050796.88,-11.96,0,0,0,0,0
1565981050812.5,-10.78,0,0,0,0,0
1565981050828.13,-10.08,0,0,0,0,0
1565981050843.75,-9.26,0,0,0,0,0
1565981050859.38,-7.55,0,0,0,0,0
1565981050875,-4.32,0,0,0,0,0
1565981050890.63,0.63,0,0,0,0,0
1565981050906.25,7.06,0,0,0,0,0
1565981050921.88,14.33,0,0,0,0,0
1565981050937.5,21.7,0,0,0,0,0
1565981050953.13,28.59,0,0,0,0,0
1565981050968.75,34.66,0,0,0,0,0
1565981050984.38,39.77,0,0,0,0,0
1565981051000,43.91,0,0,0,0,0
1565981051015.63,47.02,0,0,0,0,0
1565981051031.25,48.99,0,0,0,0,0
1565981051046.88,49.76,0,0,0,0,0
1565981051062.5,49.34,0,0,0,0,0
1565981051078.13,47.92,0,0,0,0,0
1565981051093.75,45.78,0,0,0,0,0
1565981051109.38,43.22,0,0,0,0,0
1565981051125,40.48,0,0,0,0,0
1565981051140.63,37.69,0,0,0,0,0
1565981051156.25,34.87,0,0,0,0,0
1565981051171.88,32.04,0,0,0,0,0
1565981051187.5,29.22,0,0,0,0,0
1565981051203.13,26.47,0,0,0,0,0
1565981051218.75,23.86,0,0,0,0,0
1565981051234.38,21.45,0,0,0,0,0
1565981051250,19.27,0,0,0,0,0
1565981051265.63,17.26,0,0,0,0,0
1565981051281.25,15.3,0,0,0,0,0
1565981051296.88,13.25,0,0,0,0,0
1565981051312.5,10.94,0,0,0,0,0
1565981051328.13,8.26,0,0,0,0,0
1565981051343.75,5.2,0,0,0,0,0
1565981051359.38,1.86,0,0,0,0,0
1565981051375,-1.63,0,0,0,0,0
1565981051390.63,-5.14,0,0,0,0,0
1565981051406.25,-8.69,0,0,0,0,0
1565981051421.88,-12.44,0,0,0,0,0
1565981051437.5,-16.59,0,0,0,0,0
1565981051453.13,-21.34,0,0,0,0,0
1565981051468.75,-26.69,0,0,0,0,0
1565981051484.38,-32.38,0,0,0,0,0
1565981051500,-37.94,0,0,0,0,0
1565981051515.63,-42.76,0,0,0,0,0
1565981051531.25,-46.24,0,0,0,0,0
1565981051546.88,-47.97,0,0,0,0,0
1565981051562.5,-47.8,0,0,0,0,0
1565981051578.13,-45.76,0,0,0,0,0
1565981051593.75,-42.15,0,0,0,0,0
1565981051609.38,-37.36,0,0,0,0,0
1565981051625,-31.85,0,0,0,0,0
1565981051640.63,-26.07,0,0,0,0,0
1565981051656.25,-20.39,0,0,0,0,0
1565981051671.88,-15.13,0,0,0,0,0
1565981051687.5,-10.46,0,0,0,0,0
1565981051703.13,-6.51,0,0,0,0,0
1565981051718.75,-3.3,0,0,0,0,0
1565981051734.38,-0.84,0,0,0,0,0
1565981051750,0.92,0,0,0,0,0
1565981051765.63,2.05,0,0,0,0,0
1565981051781.25,2.65,0,0,0,0,0
1565981051796.88,2.81,0,0,0,0,0
1565981051812.5,2.66,0,0,0,0,0
1565981051828.13,2.31,0,0,0,0,0
1565981051843.75,1.88,0,0,0,0,0
1565981051859.38,1.5,0,0,0,0,0
1565981051875,1.28,0,0,0,0,0
1565981051890.63,1.36,0,0,0,0,0
1565981051906.25,1.87,0,0,0,0,0
1565981051921.88,2.93,0,0,0,0,0
1565981051937.5,4.62,0,0,0,0,0
1565981051953.13,6.89,0,0,0,0,0
1565981051968.75,9.56,0,0,0,0,0
1565981051984.38,12.32,0,0,0,0,0
1565981052000,14.77,0,0,0,0,0
1565981052015.63,16.57,0,0,0,0,0
1565981052031.25,17.53,0,0,0,0,0
1565981052046.88,17.62,0,0,0,0,0
1565981052062.5,16.99,0,0,0,0,0
1565981052078.13,15.83,0,0,0,0,0
1565981052093.75,14.33,0,0,0,0,0
1565981052109.38,12.54,0,0,0,0,0
1565981052125,10.41,0,0,0,0,0
1565981052140.63,7.83,0,0,0,0,0
1565981052156.25,4.74,0,0,0,0,0
1565981052171.88,1.25,0,0,0,0,0
1565981052187.5,-2.32,0,0,0,0,0
1565981052203.13,-5.46,0,0,0,0,0
1565981052218.75,-7.57,0,0,0,0,0
1565981052234.38,-8.12,0,0,0,0,0
1565981052250,-6.83,0,0,0,0,0
1565981052265.63,-3.73,0,0,0,0,0
1565981052281.25,0.85,0,0,0,0,0
1565981052296.88,6.37,0,0,0,0,0
1565981052312.5,12.27,0,0,0,0,0
1565981052328.13,18.02,0,0,0,0,0
1565981052343.75,23.26,0,0,0,0,0
1565981052359.38,27.72,0,0,0,0,0
1565981052375,31.25,0,0,0,0,0
1565981052390.63,33.73,0,0,0,0,0
1565981052406.25,35.07,0,0,0,0,0
1565981052421.88,35.3,0,0,0,0,0
1565981052437.5,34.53,0,0,0,0,0
1565981052453.13,32.99,0,0,0,0,0
1565981052468.75,30.97,0,0,0,0,0
1565981052484.38,28.71,0,0,0,0,0
1565981052500,26.35,0,0,0,0,0
1565981052515.63,23.9,0,0,0,0,0
1565981052531.25,21.31,0,0,0,0,0
1565981052546.88,18.55,0,0,0,0,0
1565981052562.5,15.7,0,0,0,0,0
1565981052578.13,12.91,0,0,0,0,0
1565981052593.75,10.32,0,0,0,0,0
1565981052609.38,8.01,0,0,0,0,0
1565981052625,5.9,0,0,0,0,0
1565981052640.63,3.77,0,0,0,0,0
1565981052656.25,1.35,0,0,0,0,0
1565981052671.88,-1.49,0,0,0,0,0
1565981052687.5,-4.76,0,0,0,0,0
1565981052703.13,-8.27,0,0,0,0,0
1565981052718.75,-11.79,0,0,0,0,0
1565981052734.38,-15.12,0,0,0,0,0
1565981052750,-18.31,0,0,0,0,0
1565981052765.63,-21.6,0,0,0,0,0
1565981052781.25,-25.43,0,0,0,0,0
1565981052796.88,-30.24,0,0,0,0,0
1565981052812.5,-36.26,0,0,0,0,0
1565981052828.13,-43.34,0,0,0,0,0
1565981052843.75,-50.78,0,0,0,0,0
1565981052859.38,-57.52,0,0,0,0,0
1565981052875,-62.31,0,0,0,0,0
1565981052890.63,-64.09,0,0,0,0,0
1565981052906.25,-62.33,0,0,0,0,0
1565981052921.88,-57.16,0,0,0,0,0
1565981052937.5,-49.29,0,0,0,0,0
1565981052953.13,-39.85,0,0,0,0,0
1565981052968.75,-30.05,0,0,0,0,0
1565981052984.38,-20.87,0,0,0,0,0
1565981053000,-12.97,0,0,0,0,0
1565981053015.63,-6.53,0,0,0,0,0
1565981053031.25,-1.41,0,0,0,0,0
1565981053046.88,2.63,0,0,0,0,0
1565981053062.5,5.84,0,0,0,0,0
1565981053078.13,8.26,0,0,0,0,0
1565981053093.75,9.8,0,0,0,0,0
1565981053109.38,10.3,0,0,0,0,0
1565981053125,9.64,0,0,0,0,0
1565981053140.63,7.84,0,0,0,0,0
1565981053156.25,5.04,0,0,0,0,0
1565981053171.88,1.52,0,0,0,0,0
1565981053187.5,-2.34,0,0,0,0,0
1565981053203.13,-6.02,0,0,0,0,0
1565981053218.75,-8.98,0,0,0,0,0
1565981053234.38,-10.66,0,0,0,0,0
1565981053250,-10.73,0,0,0,0,0
1565981053265.63,-9.1,0,0,0,0,0
1565981053281.25,-6.12,0,0,0,0,0
1565981053296.88,-2.4,0,0,0,0,0
1565981053312.5,1.3,0,0,0,0,0
1565981053328.13,4.28,0,0,0,0,0
1565981053343.75,6.14,0,0,0,0,0
1565981053359.38,6.78,0,0,0,0,0
1565981053375,6.46,0,0,0,0,0
1565981053390.63,5.65,0,0,0,0,0
1565981053406.25,4.88,0,0,0,0,0
1565981053421.88,4.56,0,0,0,0,0
1565981053437.5,4.86,0,0,0,0,0
1565981053453.13,5.63,0,0,0,0,0
1565981053468.75,6.52,0,0,0,0,0
1565981053484.38,7.06,0,0,0,0,0
1565981053500,6.87,0,0,0,0,0
1565981053515.63,5.77,0,0,0,0,0
1565981053531.25,3.84,0,0,0,0,0
1565981053546.88,1.43,0,0,0,0,0
1565981053562.5,-0.87,0,0,0,0,0
1565981053578.13,-2.33,0,0,0,0,0
1565981053593.75,-2.28,0,0,0,0,0
1565981053609.38,-0.25,0,0,0,0,0
1565981053625,3.74,0,0,0,0,0
1565981053640.63,9.22,0,0,0,0,0
1565981053656.25,15.31,0,0,0,0,0
1565981053671.88,21.05,0,0,0,0,0
1565981053687.5,25.69,0,0,0,0,0
1565981053703.13,28.83,0,0,0,0,0
1565981053718.75,30.46,0,0,0,0,0
1565981053734.38,30.74,0,0,0,0,0
1565981053750,29.85,0,0,0,0,0
1565981053765.63,27.87,0,0,0,0,0
1565981053781.25,24.78,0,0,0,0,0
1565981053796.88,20.61,0,0,0,0,0
1565981053812.5,15.55,0,0,0,0,0
1565981053828.13,9.88,0,0,0,0,0
1565981053843.75,3.94,0,0,0,0,0
1565981053859.38,-1.93,0,0,0,0,0
1565981053875,-7.47,0,0,0,0,0
1565981053890.63,-12.38,0,0,0,0,0
1565981053906.25,-16.34,0,0,0,0,0
1565981053921.88,-18.99,0,0,0,0,0
1565981053937.5,-20.06,0,0,0,0,0
1565981053953.13,-19.51,0,0,0,0,0
1565981053968.75,-17.55,0,0,0,0,0
1565981053984.38,-14.63,0,0,0,0,0
1565981054000,-11.27,0,0,0,0,0
1565981054015.63,-7.91,0,0,0,0,0
1565981054031.25,-4.84,0,0,0,0,0
1565981054046.88,-2.16,0,0,0,0,0
1565981054062.5,0.13,0,0,0,0,0
1565981054078.13,2.05,0,0,0,0,0
1565981054093.75,3.62,0,0,0,0,0
1565981054109.38,4.8,0,0,0,0,0
1565981054125,5.48,0,0,0,0,0
1565981054140.63,5.51,0,0,0,0,0
1565981054156.25,4.68,0,0,0,0,0
1565981054171.88,2.8,0,0,0,0,0
1565981054187.5,-0.17,0,0,0,0,0
1565981054203.13,-4.03,0,0,0,0,0
1565981054218.75,-8.3,0,0,0,0,0
1565981054234.38,-12.32,0,0,0,0,0
1565981054250,-15.37,0,0,0,0,0
1565981054265.63,-16.9,0,0,0,0,0
1565981054281.25,-16.57,0,0,0,0,0
1565981054296.88,-14.32,0,0,0,0,0
1565981054312.5,-10.28,0,0,0,0,0
1565981054328.13,-4.67,0,0,0,0,0
1565981054343.75,2.16,0,0,0,0,0
1565981054359.38,9.79,0,0,0,0,0
1565981054375,17.66,0,0,0,0,0
1565981054390.63,25.18,0,0,0,0,0
1565981054406.25,31.79,0,0,0,0,0
1565981054421.88,37.16,0,0,0,0,0
1565981054437.5,41.2,0,0,0,0,0
1565981054453.13,43.97,0,0,0,0,0
1565981054468.75,45.52,0,0,0,0,0
1565981054484.38,45.7,0,0,0,0,0
1565981054500,44.26,0,0,0,0,0
1565981054515.63,41.07,0,0,0,0,0
1565981054531.25,36.4,0,0,0,0,0
1565981054546.88,30.98,0,0,0,0,0
1565981054562.5,25.78,0,0,0,0,0
1565981054578.13,21.55,0,0,0,0,0
1565981054593.75,18.5,0,0,0,0,0
1565981054609.38,16.21,0,0,0,0,0
1565981054625,14.03,0,0,0,0,0
1565981054640.63,11.55,0,0,0,0,0
1565981054656.25,8.91,0,0,0,0,0
1565981054671.88,6.76,0,0,0,0,0
1565981054687.5,5.87,0,0,0,0,0
1565981054703.13,6.64,0,0,0,0,0
1565981054718.75,8.86,0,0,0,0,0
1565981054734.38,11.72,0,0,0,0,0
1565981054750,14.23,0,0,0,0,0
1565981054765.63,15.58,0,0,0,0,0
1565981054781.25,15.31,0,0,0,0,0
1565981054796.88,13.38,0,0,0,0,0
1565981054812.5,10.03,0,0,0,0,0
1565981054828.13,5.6,0,0,0,0,0
1565981054843.75,0.54,0,0,0,0,0
1565981054859.38,-4.7,0,0,0,0,0
1565981054875,-9.66,0,0,0,0,0
1565981054890.63,-14,0,0,0,0,0
1565981054906.25,-17.65,0,0,0,0,0
1565981054921.88,-20.85,0,0,0,0,0
1565981054937.5,-24.12,0,0,0,0,0
1565981054953.13,-28.05,0,0,0,0,0
1565981054968.75,-33.06,0,0,0,0,0
1565981054984.38,-39.13,0,0,0,0,0
1565981055000,-45.73,0,0,0,0,0
1565981055015.63,-51.91,0,0,0,0,0
1565981055031.25,-56.51,0,0,0,0,0
1565981055046.88,-58.56,0,0,0,0,0
1565981055062.5,-57.57,0,0,0,0,0
1565981055078.13,-53.71,0,0,0,0,0
1565981055093.75,-47.76,0,0,0,0,0
1565981055109.38,-40.85,0,0,0,0,0
1565981055125,-34.04,0,0,0,0,0
1565981055140.63,-27.99,0,0,0,0,0
1565981055156.25,-22.81,0,0,0,0,0
1565981055171.88,-18.22,0,0,0,0,0
1565981055187.5,-13.85,0,0,0,0,0
1565981055203.13,-9.54,0,0,0,0,0
1565981055218.75,-5.51,0,0,0,0,0
1565981055234.38,-2.22,0,0,0,0,0
1565981055250,-0.09,0,0,0,0,0
1565981055265.63,0.78,0,0,0,0,0
1565981055281.25,0.69,0,0,0,0,0
1565981055296.88,0.22,0,0,0,0,0
1565981055312.5,-0.05,0,0,0,0,0
1565981055328.13,0.29,0,0,0,0,0
1565981055343.75,1.37,0,0,0,0,0
1565981055359.38,3.17,0,0,0,0,0
1565981055375,5.58,0,0,0,0,0
1565981055390.63,8.42,0,0,0,0,0
1565981055406.25,11.48,0,0,0,0,0
1565981055421.88,14.44,0,0,0,0,0
1565981055437.5,17.03,0,0,0,0,0
1565981055453.13,19.17,0,0,0,0,0
1565981055468.75,21.13,0,0,0,0,0
1565981055484.38,23.4,0,0,0,0,0
1565981055500,26.43,0,0,0,0,0
1565981055515.63,30.26,0,0,0,0,0
1565981055531.25,34.41,0,0,0,0,0
1565981055546.88,37.97,0,0,0,0,0
1565981055562.5,40.04,0,0,0,0,0
1565981055578.13,40.16,0,0,0,0,0
1565981055593.75,38.57,0,0,0,0,0
1565981055609.38,36.03,0,0,0,0,0
1565981055625,33.54,0,0,0,0,0
1565981055640.63,31.85,0,0,0,0,0
1565981055656.25,31.29,0,0,0,0,0
1565981055671.88,31.73,0,0,0,0,0
1565981055687.5,32.75,0,0,0,0,0
1565981055703.13,33.82,0,0,0,0,0
1565981055718.75,34.45,0,0,0,0,0
1565981055734.38,34.32,0,0,0,0,0
1565981055750,33.22,0,0,0,0,0
1565981055765.63,31.24,0,0,0,0,0
1565981055781.25,28.73,0,0,0,0,0
1565981055796.88,26.24,0,0,0,0,0
1565981055812.5,24.39,0,0,0,0,0
1565981055828.13,23.62,0,0,0,0,0
1565981055843.75,24.08,0,0,0,0,0
1565981055859.38,25.51,0,0,0,0,0
1565981055875,27.46,0,0,0,0,0
1565981055890.63,29.39,0,0,0,0,0
1565981055906.25,30.92,0,0,0,0,0
1565981055921.88,31.87,0,0,0,0,0
1565981055937.5,32.26,0,0,0,0,0
1565981055953.13,32.14,0,0,0,0,0
1565981055968.75,31.5,0,0,0,0,0
1565981055984.38,30.17,0,0,0,0,0
1565981056000,27.87,0,0,0,0,0
1565981056015.63,24.37,0,0,0,0,0
1565981056031.25,19.67,0,0,0,0,0
1565981056046.88,13.98,0,0,0,0,0
1565981056062.5,7.7,0,0,0,0,0
1565981056078.13,1.24,0,0,0,0,0
1565981056093.75,-5.14,0,0,0,0,0
1565981056109.38,-11.31,0,0,0,0,0
1565981056125,-17.16,0,0,0,0,0
1565981056140.63,-22.48,0,0,0,0,0
1565981056156.25,-26.84,0,0,0,0,0
1565981056171.88,-29.82,0,0,0,0,0
1565981056187.5,-31.15,0,0,0,0,0
1565981056203.13,-30.98,0,0,0,0,0
1565981056218.75,-29.87,0,0,0,0,0
1565981056234.38,-28.56,0,0,0,0,0
1565981056250,-27.74,0,0,0,0,0
1565981056265.63,-27.67,0,0,0,0,0
1565981056281.25,-28.28,0,0,0,0,0
1565981056296.88,-29.33,0,0,0,0,0
1565981056312.5,-30.72,0,0,0,0,0
1565981056328.13,-32.71,0,0,0,0,0
1565981056343.75,-35.8,0,0,0,0,0
1565981056359.38,-40.41,0,0,0,0,0
1565981056375,-46.52,0,0,0,0,0
1565981056390.63,-53.47,0,0,0,0,0
1565981056406.25,-60.07,0,0,0,0,0
1565981056421.88,-65.01,0,0,0,0,0
1565981056437.5,-67.25,0,0,0,0,0
1565981056453.13,-66.3,0,0,0,0,0
1565981056468.75,-62.25,0,0,0,0,0
1565981056484.38,-55.58,0,0,0,0,0
1565981056500,-47.02,0,0,0,0,0
1565981056515.63,-37.45,0,0,0,0,0
1565981056531.25,-27.93,0,0,0,0,0
1565981056546.88,-19.66,0,0,0,0,0
1565981056562.5,-13.75,0,0,0,0,0
1565981056578.13,-10.95,0,0,0,0,0
1565981056593.75,-11.24,0,0,0,0,0
1565981056609.38,-13.8,0,0,0,0,0
1565981056625,-17.21,0,0,0,0,0
1565981056640.63,-19.97,0,0,0,0,0
1565981056656.25,-20.98,0,0,0,0,0
1565981056671.88,-19.81,0,0,0,0,0
1565981056687.5,-16.65,0,0,0,0,0
1565981056703.13,-12.06,0,0,0,0,0
1565981056718.75,-6.71,0,0,0,0,0
1565981056734.38,-1.11,0,0,0,0,0
1565981056750,4.31,0,0,0,0,0
1565981056765.63,9.26,0,0,0,0,0
1565981056781.25,13.5,0,0,0,0,0
1565981056796.88,16.86,0,0,0,0,0
1565981056812.5,19.31,0,0,0,0,0
1565981056828.13,20.92,0,0,0,0,0
1565981056843.75,21.85,0,0,0,0,0
1565981056859.38,22.28,0,0,0,0,0
1565981056875,22.35,0,0,0,0,0
1565981056890.63,22.2,0,0,0,0,0
1565981056906.25,22.01,0,0,0,0,0
1565981056921.88,22.02,0,0,0,0,0
1565981056937.5,22.4,0,0,0,0,0
1565981056953.13,23.16,0,0,0,0,0
1565981056968.75,24.06,0,0,0,0,0
1565981056984.38,24.66,0,0,0,0,0
1565981057000,24.48,0,0,0,0,0
1565981057015.63,23.26,0,0,0,0,0
1565981057031.25,21,0,0,0,0,0
1565981057046.88,18.04,0,0,0,0,0
1565981057062.5,14.83,0,0,0,0,0
1565981057078.13,11.79,0,0,0,0,0
1565981057093.75,9.1,0,0,0,0,0
1565981057109.38,6.71,0,0,0,0,0
1565981057125,4.44,0,0,0,0,0
1565981057140.63,2.07,0,0,0,0,0
1565981057156.25,-0.53,0,0,0,0,0
1565981057171.88,-3.41,0,0,0,0,0
1565981057187.5,-6.5,0,0,0,0,0
1565981057203.13,-9.58,0,0,0,0,0
1565981057218.75,-12.33,0,0,0,0,0
1565981057234.38,-14.31,0,0,0,0,0
1565981057250,-15.07,0,0,0,0,0
1565981057265.63,-14.27,0,0,0,0,0
1565981057281.25,-11.82,0,0,0,0,0
1565981057296.88,-7.91,0,0,0,0,0
1565981057312.5,-3.01,0,0,0,0,0
1565981057328.13,2.31,0,0,0,0,0
1565981057343.75,7.49,0,0,0,0,0
1565981057359.38,12.13,0,0,0,0,0
1565981057375,15.99,0,0,0,0,0
1565981057390.63,18.93,0,0,0,0,0
1565981057406.25,20.86,0,0,0,0,0
1565981057421.88,21.63,0,0,0,0,0
1565981057437.5,21.15,0,0,0,0,0
1565981057453.13,19.4,0,0,0,0,0
1565981057468.75,16.57,0,0,0,0,0
1565981057484.38,12.94,0,0,0,0,0
1565981057500,8.93,0,0,0,0,0
1565981057515.63,4.91,0,0,0,0,0
1565981057531.25,1.12,0,0,0,0,0
1565981057546.88,-2.31,0,0,0,0,0
1565981057562.5,-5.35,0,0,0,0,0
1565981057578.13,-8.05,0,0,0,0,0
1565981057593.75,-10.42,0,0,0,0,0
1565981057609.38,-12.46,0,0,0,0,0
1565981057625,-14.16,0,0,0,0,0
1565981057640.63,-15.5,0,0,0,0,0
1565981057656.25,-16.47,0,0,0,0,0
1565981057671.88,-17.08,0,0,0,0,0
1565981057687.5,-17.35,0,0,0,0,0
1565981057703.13,-17.35,0,0,0,0,0
1565981057718.75,-17.21,0,0,0,0,0
1565981057734.38,-17.13,0,0,0,0,0
1565981057750,-17.28,0,0,0,0,0
1565981057765.63,-17.76,0,0,0,0,0
1565981057781.25,-18.55,0,0,0,0,0
1565981057796.88,-19.48,0,0,0,0,0
1565981057812.5,-20.38,0,0,0,0,0
1565981057828.13,-21.12,0,0,0,0,0
1565981057843.75,-21.67,0,0,0,0,0
1565981057859.38,-22.14,0,0,0,0,0
1565981057875,-22.71,0,0,0,0,0
1565981057890.63,-23.54,0,0,0,0,0
1565981057906.25,-24.78,0,0,0,0,0
1565981057921.88,-26.41,0,0,0,0,0
1565981057937.5,-28.28,0,0,0,0,0
1565981057953.13,-29.99,0,0,0,0,0
1565981057968.75,-30.99,0,0,0,0,0
1565981057984.38,-30.66,0,0,0,0,0
1565981058000,-28.44,0,0,0,0,0
1565981058015.63,-24.12,0,0,0,0,0
1565981058031.25,-17.82,0,0,0,0,0
1565981058046.88,-10.03,0,0,0,0,0
1565981058062.5,-1.47,0,0,0,0,0
1565981058078.13,7.15,0,0,0,0,0
1565981058093.75,15.25,0,0,0,0,0
1565981058109.38,22.42,0,0,0,0,0
1565981058125,28.36,0,0,0,0,0
1565981058140.63,32.89,0,0,0,0,0
1565981058156.25,35.91,0,0,0,0,0
1565981058171.88,37.45,0,0,0,0,0
1565981058187.5,37.71,0,0,0,0,0
1565981058203.13,37.04,0,0,0,0,0
1565981058218.75,35.81,0,0,0,0,0
1565981058234.38,34.33,0,0,0,0,0
1565981058250,32.78,0,0,0,0,0
1565981058265.63,31.23,0,0,0,0,0
1565981058281.25,29.72,0,0,0,0,0
1565981058296.88,28.33,0,0,0,0,0
1565981058312.5,27.19,0,0,0,0,0
1565981058328.13,26.44,0,0,0,0,0
1565981058343.75,26.17,0,0,0,0,0
1565981058359.38,26.37,0,0,0,0,0
1565981058375,26.89,0,0,0,0,0
1565981058390.63,27.49,0,0,0,0,0
1565981058406.25,27.84,0,0,0,0,0
1565981058421.88,27.66,0,0,0,0,0
1565981058437.5,26.74,0,0,0,0,0
1565981058453.13,25.05,0,0,0,0,0
1565981058468.75,22.76,0,0,0,0,0
1565981058484.38,20.15,0,0,0,0,0
1565981058500,17.51,0,0,0,0,0
1565981058515.63,14.96,0,0,0,0,0
1565981058531.25,12.46,0,0,0,0,0
1565981058546.88,9.79,0,0,0,0,0
1565981058562.5,6.67,0,0,0,0,0
1565981058578.13,2.89,0,0,0,0,0
1565981058593.75,-1.63,0,0,0,0,0
1565981058609.38,-6.82,0,0,0,0,0
1565981058625,-12.43,0,0,0,0,0
1565981058640.63,-18.1,0,0,0,0,0
1565981058656.25,-23.33,0,0,0,0,0
1565981058671.88,-27.54,0,0,0,0,0
1565981058687.5,-30.2,0,0,0,0,0
1565981058703.13,-30.92,0,0,0,0,0
1565981058718.75,-29.6,0,0,0,0,0
1565981058734.38,-26.5,0,0,0,0,0
1565981058750,-22.15,0,0,0,0,0
1565981058765.63,-17.24,0,0,0,0,0
1565981058781.25,-12.42,0,0,0,0,0
1565981058796.88,-8.17,0,0,0,0,0
1565981058812.5,-4.79,0,0,0,0,0
1565981058828.13,-2.39,0,0,0,0,0
1565981058843.75,-1.03,0,0,0,0,0
1565981058859.38,-0.71,0,0,0,0,0
1565981058875,-1.4,0,0,0,0,0
1565981058890.63,-2.99,0,0,0,0,0
1565981058906.25,-5.28,0,0,0,0,0
1565981058921.88,-8,0,0,0,0,0
1565981058937.5,-10.86,0,0,0,0,0
1565981058953.13,-13.6,0,0,0,0,0
1565981058968.75,-16.04,0,0,0,0,0
1565981058984.38,-18.06,0,0,0,0,0
1565981059000,-19.58,0,0,0,0,0
1565981059015.63,-20.53,0,0,0,0,0
1565981059031.25,-20.88,0,0,0,0,0
1565981059046.88,-20.6,0,0,0,0,0
1565981059062.5,-19.79,0,0,0,0,0
1565981059078.13,-18.56,0,0,0,0,0
1565981059093.75,-17.02,0,0,0,0,0
1565981059109.38,-15.26,0,0,0,0,0
1565981059125,-13.31,0,0,0,0,0
1565981059140.63,-11.22,0,0,0,0,0
1565981059156.25,-9.12,0,0,0,0,0
1565981059171.88,-7.12,0,0,0,0,0
1565981059187.5,-5.35,0,0,0,0,0
1565981059203.13,-3.85,0,0,0,0,0
1565981059218.75,-2.57,0,0,0,0,0
1565981059234.38,-1.46,0,0,0,0,0
1565981059250,-0.47,0,0,0,0,0
1565981059265.63,0.34,0,0,0,0,0
1565981059281.25,0.88,0,0,0,0,0
1565981059296.88,1.04,0,0,0,0,0
1565981059312.5,0.82,0,0,0,0,0
1565981059328.13,0.24,0,0,0,0,0
1565981059343.75,-0.64,0,0,0,0,0
1565981059359.38,-1.78,0,0,0,0,0
1565981059375,-3.12,0,0,0,0,0
1565981059390.63,-4.46,0,0,0,0,0
1565981059406.25,-5.39,0,0,0,0,0
1565981059421.88,-5.38,0,0,0,0,0
1565981059437.5,-3.94,0,0,0,0,0
1565981059453.13,-0.83,0,0,0,0,0
1565981059468.75,3.79,0,0,0,0,0
1565981059484.38,9.43,0,0,0,0,0
1565981059500,15.43,0,0,0,0,0
1565981059515.63,21.21,0,0,0,0,0
1565981059531.25,26.37,0,0,0,0,0
1565981059546.88,30.76,0,0,0,0,0
1565981059562.5,34.3,0,0,0,0,0
1565981059578.13,36.92,0,0,0,0,0
1565981059593.75,38.6,0,0,0,0,0
1565981059609.38,39.3,0,0,0,0,0
1565981059625,39.1,0,0,0,0,0
1565981059640.63,38.11,0,0,0,0,0
1565981059656.25,36.49,0,0,0,0,0
1565981059671.88,34.35,0,0,0,0,0
1565981059687.5,31.82,0,0,0,0,0
1565981059703.13,29.03,0,0,0,0,0
1565981059718.75,26.16,0,0,0,0,0
1565981059734.38,23.44,0,0,0,0,0
1565981059750,21.07,0,0,0,0,0
1565981059765.63,19.14,0,0,0,0,0
1565981059781.25,17.59,0,0,0,0,0
1565981059796.88,16.25,0,0,0,0,0
1565981059812.5,14.93,0,0,0,0,0
1565981059828.13,13.54,0,0,0,0,0
1565981059843.75,12.02,0,0,0,0,0
1565981059859.38,10.35,0,0,0,0,0
1565981059875,8.46,0,0,0,0,0
1565981059890.63,6.16,0,0,0,0,0
1565981059906.25,3.21,0,0,0,0,0
1565981059921.88,-0.54,0,0,0,0,0
1565981059937.5,-5.02,0,0,0,0,0
1565981059953.13,-9.96,0,0,0,0,0
1565981059968.75,-14.95,0,0,0,0,0
1565981059984.38,-19.62,0,0,0,0,0
1565981060000,-23.83,0,0,0,0,0
1565981060015.63,-27.66,0,0,0,0,0
1565981060031.25,-31.46,0,0,0,0,0
1565981060046.88,-35.61,0,0,0,0,0
1565981060062.5,-40.35,0,0,0,0,0
1565981060078.13,-45.71,0,0,0,0,0
1565981060093.75,-51.39,0,0,0,0,0
1565981060109.38,-56.86,0,0,0,0,0
1565981060125,-61.38,0,0,0,0,0
1565981060140.63,-64.2,0,0,0,0,0
1565981060156.25,-64.65,0,0,0,0,0
1565981060171.88,-62.41,0,0,0,0,0
1565981060187.5,-57.57,0,0,0,0,0
1565981060203.13,-50.66,0,0,0,0,0
1565981060218.75,-42.5,0,0,0,0,0
1565981060234.38,-33.98,0,0,0,0,0
1565981060250,-25.84,0,0,0,0,0
1565981060265.63,-18.52,0,0,0,0,0
1565981060281.25,-12.2,0,0,0,0,0
1565981060296.88,-6.83,0,0,0,0,0
1565981060312.5,-2.31,0,0,0,0,0
1565981060328.13,1.5,0,0,0,0,0
1565981060343.75,4.69,0,0,0,0,0
1565981060359.38,7.32,0,0,0,0,0
1565981060375,9.4,0,0,0,0,0
1565981060390.63,10.97,0,0,0,0,0
1565981060406.25,12.07,0,0,0,0,0
1565981060421.88,12.83,0,0,0,0,0
1565981060437.5,13.46,0,0,0,0,0
1565981060453.13,14.23,0,0,0,0,0
1565981060468.75,15.39,0,0,0,0,0
1565981060484.38,17.04,0,0,0,0,0
1565981060500,19.1,0,0,0,0,0
1565981060515.63,21.36,0,0,0,0,0
1565981060531.25,23.56,0,0,0,0,0
1565981060546.88,25.51,0,0,0,0,0
1565981060562.5,27.12,0,0,0,0,0
1565981060578.13,28.4,0,0,0,0,0
1565981060593.75,29.35,0,0,0,0,0
1565981060609.38,29.89,0,0,0,0,0
1565981060625,29.88,0,0,0,0,0
1565981060640.63,29.19,0,0,0,0,0
1565981060656.25,27.82,0,0,0,0,0
1565981060671.88,25.96,0,0,0,0,0
1565981060687.5,23.91,0,0,0,0,0
1565981060703.13,21.94,0,0,0,0,0
1565981060718.75,20.14,0,0,0,0,0
1565981060734.38,18.37,0,0,0,0,0
1565981060750,16.29,0,0,0,0,0
1565981060765.63,13.52,0,0,0,0,0
1565981060781.25,9.86,0,0,0,0,0
1565981060796.88,5.32,0,0,0,0,0
1565981060812.5,0.17,0,0,0,0,0
1565981060828.13,-5.17,0,0,0,0,0
1565981060843.75,-10.14,0,0,0,0,0
1565981060859.38,-14.15,0,0,0,0,0
1565981060875,-16.6,0,0,0,0,0
1565981060890.63,-17.06,0,0,0,0,0
1565981060906.25,-15.35,0,0,0,0,0
1565981060921.88,-11.69,0,0,0,0,0
1565981060937.5,-6.65,0,0,0,0,0
1565981060953.13,-1.04,0,0,0,0,0
1565981060968.75,4.41,0,0,0,0,0
1565981060984.38,9.13,0,0,0,0,0
1565981061000,12.81,0,0,0,0,0
1565981061015.63,15.3,0,0,0,0,0
1565981061031.25,16.53,0,0,0,0,0
1565981061046.88,16.49,0,0,0,0,0
1565981061062.5,15.24,0,0,0,0,0
1565981061078.13,13,0,0,0,0,0
1565981061093.75,10.16,0,0,0,0,0
1565981061109.38,7.16,0,0,0,0,0
1565981061125,4.33,0,0,0,0,0
1565981061140.63,1.79,0,0,0,0,0
1565981061156.25,-0.53,0,0,0,0,0
1565981061171.88,-2.79,0,0,0,0,0
1565981061187.5,-5.08,0,0,0,0,0
1565981061203.13,-7.32,0,0,0,0,0
1565981061218.75,-9.29,0,0,0,0,0
1565981061234.38,-10.73,0,0,0,0,0
1565981061250,-11.46,0,0,0,0,0
1565981061265.63,-11.51,0,0,0,0,0
1565981061281.25,-11.12,0,0,0,0,0
1565981061296.88,-10.68,0,0,0,0,0
1565981061312.5,-10.6,0,0,0,0,0
1565981061328.13,-11.23,0,0,0,0,0
1565981061343.75,-12.63,0,0,0,0,0
1565981061359.38,-14.69,0,0,0,0,0
1565981061375,-17.07,0,0,0,0,0
1565981061390.63,-19.4,0,0,0,0,0
1565981061406.25,-21.41,0,0,0,0,0
1565981061421.88,-23.06,0,0,0,0,0
1565981061437.5,-24.52,0,0,0,0,0
1565981061453.13,-26.09,0,0,0,0,0
1565981061468.75,-28.06,0,0,0,0,0
1565981061484.38,-30.49,0,0,0,0,0
1565981061500,-33.19,0,0,0,0,0
1565981061515.63,-35.69,0,0,0,0,0
1565981061531.25,-37.42,0,0,0,0,0
1565981061546.88,-37.8,0,0,0,0,0
1565981061562.5,-36.47,0,0,0,0,0
1565981061578.13,-33.28,0,0,0,0,0
1565981061593.75,-28.39,0,0,0,0,0
1565981061609.38,-22.15,0,0,0,0,0
1565981061625,-15.02,0,0,0,0,0
1565981061640.63,-7.53,0,0,0,0,0
1565981061656.25,-0.19,0,0,0,0,0
1565981061671.88,6.52,0,0,0,0,0
1565981061687.5,12.21,0,0,0,0,0
1565981061703.13,16.65,0,0,0,0,0
1565981061718.75,19.77,0,0,0,0,0
1565981061734.38,21.7,0,0,0,0,0
1565981061750,22.71,0,0,0,0,0
1565981061765.63,23.14,0,0,0,0,0
1565981061781.25,23.24,0,0,0,0,0
1565981061796.88,23.16,0,0,0,0,0
1565981061812.5,22.87,0,0,0,0,0
1565981061828.13,22.34,0,0,0,0,0
1565981061843.75,21.63,0,0,0,0,0
1565981061859.38,20.93,0,0,0,0,0
1565981061875,20.49,0,0,0,0,0
1565981061890.63,20.52,0,0,0,0,0
1565981061906.25,21.05,0,0,0,0,0
1565981061921.88,21.89,0,0,0,0,0
1565981061937.5,22.7,0,0,0,0,0
1565981061953.13,23.21,0,0,0,0,0
1565981061968.75,23.27,0,0,0,0,0
1565981061984.38,22.9,0,0,0,0,0
1565981062000,22.21,0,0,0,0,0
1565981062015.63,21.29,0,0,0,0,0
1565981062031.25,20.15,0,0,0,0,0
1565981062046.88,18.73,0,0,0,0,0
1565981062062.5,16.99,0,0,0,0,0
1565981062078.13,14.91,0,0,0,0,0
1565981062093.75,12.51,0,0,0,0,0
1565981062109.38,9.79,0,0,0,0,0
1565981062125,6.71,0,0,0,0,0
1565981062140.63,3.15,0,0,0,0,0
1565981062156.25,-0.85,0,0,0,0,0
1565981062171.88,-5.07,0,0,0,0,0
1565981062187.5,-9.02,0,0,0,0,0
1565981062203.13,-12,0,0,0,0,0
1565981062218.75,-13.36,0,0,0,0,0
1565981062234.38,-12.69,0,0,0,0,0
1565981062250,-9.98,0,0,0,0,0
1565981062265.63,-5.61,0,0,0,0,0
1565981062281.25,-0.23,0,0,0,0,0
1565981062296.88,5.45,0,0,0,0,0
1565981062312.5,10.82,0,0,0,0,0
1565981062328.13,15.49,0,0,0,0,0
1565981062343.75,19.21,0,0,0,0,0
1565981062359.38,21.91,0,0,0,0,0
1565981062375,23.56,0,0,0,0,0
1565981062390.63,24.17,0,0,0,0,0
1565981062406.25,23.76,0,0,0,0,0
1565981062421.88,22.35,0,0,0,0,0
1565981062437.5,20.02,0,0,0,0,0
1565981062453.13,16.92,0,0,0,0,0
1565981062468.75,13.32,0,0,0,0,0
1565981062484.38,9.49,0,0,0,0,0
1565981062500,5.68,0,0,0,0,0
1565981062515.63,2.04,0,0,0,0,0
1565981062531.25,-1.44,0,0,0,0,0
1565981062546.88,-4.83,0,0,0,0,0
1565981062562.5,-8.2,0,0,0,0,0
1565981062578.13,-11.55,0,0,0,0,0
1565981062593.75,-14.76,0,0,0,0,0
1565981062609.38,-17.68,0,0,0,0,0
1565981062625,-20.2,0,0,0,0,0
1565981062640.63,-22.35,0,0,0,0,0
1565981062656.25,-24.25,0,0,0,0,0
1565981062671.88,-26.02,0,0,0,0,0
1565981062687.5,-27.77,0,0,0,0,0
1565981062703.13,-29.54,0,0,0,0,0
1565981062718.75,-31.31,0,0,0,0,0
1565981062734.38,-33.03,0,0,0,0,0
1565981062750,-34.66,0,0,0,0,0
1565981062765.63,-36.16,0,0,0,0,0
1565981062781.25,-37.54,0,0,0,0,0
1565981062796.88,-38.86,0,0,0,0,0
1565981062812.5,-40.19,0,0,0,0,0
1565981062828.13,-41.5,0,0,0,0,0
1565981062843.75,-42.63,0,0,0,0,0
1565981062859.38,-43.21,0,0,0,0,0
1565981062875,-42.66,0,0,0,0,0
1565981062890.63,-40.43,0,0,0,0,0
1565981062906.25,-36.18,0,0,0,0,0
1565981062921.88,-29.94,0,0,0,0,0
1565981062937.5,-22.16,0,0,0,0,0
1565981062953.13,-13.63,0,0,0,0,0
1565981062968.75,-5.21,0,0,0,0,0
1565981062984.38,2.42,0,0,0,0,0
1565981063000,8.87,0,0,0,0,0
1565981063015.63,14.13,0,0,0,0,0
1565981063031.25,18.4,0,0,0,0,0
1565981063046.88,21.97,0,0,0,0,0
1565981063062.5,25.03,0,0,0,0,0
1565981063078.13,27.6,0,0,0,0,0
1565981063093.75,29.55,0,0,0,0,0
1565981063109.38,30.74,0,0,0,0,0
1565981063125,31.18,0,0,0,0,0
1565981063140.63,31.04,0,0,0,0,0
1565981063156.25,30.63,0,0,0,0,0
1565981063171.88,30.27,0,0,0,0,0
1565981063187.5,30.2,0,0,0,0,0
1565981063203.13,30.4,0,0,0,0,0
1565981063218.75,30.69,0,0,0,0,0
1565981063234.38,30.74,0,0,0,0,0
1565981063250,30.29,0,0,0,0,0
1565981063265.63,29.2,0,0,0,0,0
1565981063281.25,27.58,0,0,0,0,0
1565981063296.88,25.7,0,0,0,0,0
1565981063312.5,23.88,0,0,0,0,0
1565981063328.13,22.35,0,0,0,0,0
1565981063343.75,21.13,0,0,0,0,0
1565981063359.38,20.09,0,0,0,0,0
1565981063375,18.97,0,0,0,0,0
1565981063390.63,17.52,0,0,0,0,0
1565981063406.25,15.57,0,0,0,0,0
1565981063421.88,13.01,0,0,0,0,0
1565981063437.5,9.75,0,0,0,0,0
1565981063453.13,5.82,0,0,0,0,0
1565981063468.75,1.39,0,0,0,0,0
1565981063484.38,-3.12,0,0,0,0,0
1565981063500,-7.02,0,0,0,0,0
1565981063515.63,-9.54,0,0,0,0,0
1565981063531.25,-10.03,0,0,0,0,0
1565981063546.88,-8.31,0,0,0,0,0
1565981063562.5,-4.7,0,0,0,0,0
1565981063578.13,0.02,0,0,0,0,0
1565981063593.75,4.89,0,0,0,0,0
1565981063609.38,9.06,0,0,0,0,0
1565981063625,12.01,0,0,0,0,0
1565981063640.63,13.67,0,0,0,0,0
1565981063656.25,14.26,0,0,0,0,0
1565981063671.88,14.13,0,0,0,0,0
1565981063687.5,13.5,0,0,0,0,0
1565981063703.13,12.41,0,0,0,0,0
1565981063718.75,10.69,0,0,0,0,0
1565981063734.38,8.12,0,0,0,0,0
1565981063750,4.59,0,0,0,0,0
1565981063765.63,0.17,0,0,0,0,0
1565981063781.25,-4.86,0,0,0,0,0
1565981063796.88,-10.12,0,0,0,0,0
1565981063812.5,-15.23,0,0,0,0,0
1565981063828.13,-19.86,0,0,0,0,0
1565981063843.75,-23.85,0,0,0,0,0
1565981063859.38,-27.09,0,0,0,0,0
1565981063875,-29.59,0,0,0,0,0
1565981063890.63,-31.41,0,0,0,0,0
1565981063906.25,-32.66,0,0,0,0,0
1565981063921.88,-33.52,0,0,0,0,0
1565981063937.5,-34.11,0,0,0,0,0
1565981063953.13,-34.54,0,0,0,0,0
1565981063968.75,-34.85,0,0,0,0,0
1565981063984.38,-35.05,0,0,0,0,0
1565981064000,-35.14,0,0,0,0,0
1565981064015.63,-35.21,0,0,0,0,0
1565981064031.25,-35.4,0,0,0,0,0
1565981064046.88,-35.88,0,0,0,0,0
1565981064062.5,-36.77,0,0,0,0,0
1565981064078.13,-38.03,0,0,0,0,0
1565981064093.75,-39.4,0,0,0,0,0
1565981064109.38,-40.4,0,0,0,0,0
1565981064125,-40.37,0,0,0,0,0
1565981064140.63,-38.69,0,0,0,0,0
1565981064156.25,-34.89,0,0,0,0,0
1565981064171.88,-28.85,0,0,0,0,0
1565981064187.5,-20.85,0,0,0,0,0
1565981064203.13,-11.5,0,0,0,0,0
1565981064218.75,-1.63,0,0,0,0,0
1565981064234.38,7.93,0,0,0,0,0
1565981064250,16.48,0,0,0,0,0
1565981064265.63,23.65,0,0,0,0,0
1565981064281.25,29.36,0,0,0,0,0
1565981064296.88,33.74,0,0,0,0,0
1565981064312.5,36.99,0,0,0,0,0
1565981064328.13,39.27,0,0,0,0,0
1565981064343.75,40.67,0,0,0,0,0
1565981064359.38,41.21,0,0,0,0,0
1565981064375,40.92,0,0,0,0,0
1565981064390.63,39.91,0,0,0,0,0
1565981064406.25,38.37,0,0,0,0,0
1565981064421.88,36.48,0,0,0,0,0
1565981064437.5,34.47,0,0,0,0,0
1565981064453.13,32.47,0,0,0,0,0
1565981064468.75,30.63,0,0,0,0,0
1565981064484.38,29,0,0,0,0,0
1565981064500,27.64,0,0,0,0,0
1565981064515.63,26.57,0,0,0,0,0
1565981064531.25,25.74,0,0,0,0,0
1565981064546.88,25.02,0,0,0,0,0
1565981064562.5,24.22,0,0,0,0,0
1565981064578.13,23.2,0,0,0,0,0
1565981064593.75,21.83,0,0,0,0,0
1565981064609.38,20.11,0,0,0,0,0
1565981064625,18.08,0,0,0,0,0
1565981064640.63,15.78,0,0,0,0,0
1565981064656.25,13.17,0,0,0,0,0
1565981064671.88,10.15,0,0,0,0,0
1565981064687.5,6.59,0,0,0,0,0
1565981064703.13,2.49,0,0,0,0,0
1565981064718.75,-1.9,0,0,0,0,0
1565981064734.38,-6.08,0,0,0,0,0
1565981064750,-9.38,0,0,0,0,0
1565981064765.63,-11.2,0,0,0,0,0
1565981064781.25,-11.19,0,0,0,0,0
1565981064796.88,-9.42,0,0,0,0,0
1565981064812.5,-6.31,0,0,0,0,0
1565981064828.13,-2.47,0,0,0,0,0
1565981064843.75,1.5,0,0,0,0,0
1565981064859.38,5.14,0,0,0,0,0
1565981064875,8.2,0,0,0,0,0
1565981064890.63,10.49,0,0,0,0,0
1565981064906.25,11.86,0,0,0,0,0
1565981064921.88,12.16,0,0,0,0,0
1565981064937.5,11.25,0,0,0,0,0
1565981064953.13,9.08,0,0,0,0,0
1565981064968.75,5.74,0,0,0,0,0
1565981064984.38,1.41,0,0,0,0,0
1565981065000,-3.66,0,0,0,0,0
1565981065015.63,-9.15,0,0,0,0,0
1565981065031.25,-14.73,0,0,0,0,0
1565981065046.88,-20.06,0,0,0,0,0
1565981065062.5,-24.79,0,0,0,0,0
1565981065078.13,-28.63,0,0,0,0,0
1565981065093.75,-31.39,0,0,0,0,0
1565981065109.38,-33.06,0,0,0,0,0
1565981065125,-33.76,0,0,0,0,0
1565981065140.63,-33.77,0,0,0,0,0
1565981065156.25,-33.4,0,0,0,0,0
1565981065171.88,-32.89,0,0,0,0,0
1565981065187.5,-32.4,0,0,0,0,0
1565981065203.13,-31.94,0,0,0,0,0
1565981065218.75,-31.42,0,0,0,0,0
1565981065234.38,-30.69,0,0,0,0,0
1565981065250,-29.68,0,0,0,0,0
1565981065265.63,-28.46,0,0,0,0,0
1565981065281.25,-27.26,0,0,0,0,0
1565981065296.88,-26.49,0,0,0,0,0
1565981065312.5,-26.48,0,0,0,0,0
1565981065328.13,-27.4,0,0,0,0,0
1565981065343.75,-29.07,0,0,0,0,0
1565981065359.38,-30.96,0,0,0,0,0
1565981065375,-32.3,0,0,0,0,0
1565981065390.63,-32.26,0,0,0,0,0
1565981065406.25,-30.15,0,0,0,0,0
1565981065421.88,-25.62,0,0,0,0,0
1565981065437.5,-18.71,0,0,0,0,0
1565981065453.13,-9.85,0,0,0,0,0
1565981065468.75,0.28,0,0,0,0,0
1565981065484.38,10.87,0,0,0,0,0
1565981065500,21.09,0,0,0,0,0
1565981065515.63,30.21,0,0,0,0,0
1565981065531.25,37.72,0,0,0,0,0
1565981065546.88,43.34,0,0,0,0,0
1565981065562.5,47.07,0,0,0,0,0
1565981065578.13,49.09,0,0,0,0,0
1565981065593.75,49.67,0,0,0,0,0
1565981065609.38,49.11,0,0,0,0,0
1565981065625,47.64,0,0,0,0,0
1565981065640.63,45.52,0,0,0,0,0
1565981065656.25,42.95,0,0,0,0,0
1565981065671.88,40.18,0,0,0,0,0
1565981065687.5,37.43,0,0,0,0,0
1565981065703.13,34.86,0,0,0,0,0
1565981065718.75,32.57,0,0,0,0,0
1565981065734.38,30.53,0,0,0,0,0
1565981065750,28.72,0,0,0,0,0
1565981065765.63,27.08,0,0,0,0,0
1565981065781.25,25.61,0,0,0,0,0
1565981065796.88,24.25,0,0,0,0,0
1565981065812.5,22.91,0,0,0,0,0
1565981065828.13,21.45,0,0,0,0,0
1565981065843.75,19.77,0,0,0,0,0
1565981065859.38,17.83,0,0,0,0,0
1565981065875,15.68,0,0,0,0,0
1565981065890.63,13.4,0,0,0,0,0
1565981065906.25,10.94,0,0,0,0,0
1565981065921.88,8.17,0,0,0,0,0
1565981065937.5,4.82,0,0,0,0,0
1565981065953.13,0.67,0,0,0,0,0
1565981065968.75,-4.35,0,0,0,0,0
1565981065984.38,-10.07,0,0,0,0,0
1565981066000,-16.08,0,0,0,0,0
1565981066015.63,-21.76,0,0,0,0,0
1565981066031.25,-26.43,0,0,0,0,0
1565981066046.88,-29.43,0,0,0,0,0
1565981066062.5,-30.26,0,0,0,0,0
1565981066078.13,-28.76,0,0,0,0,0
1565981066093.75,-25.18,0,0,0,0,0
1565981066109.38,-20.15,0,0,0,0,0
1565981066125,-14.58,0,0,0,0,0
1565981066140.63,-9.41,0,0,0,0,0
1565981066156.25,-5.33,0,0,0,0,0
1565981066171.88,-2.69,0,0,0,0,0
1565981066187.5,-1.52,0,0,0,0,0
1565981066203.13,-1.67,0,0,0,0,0
1565981066218.75,-2.92,0,0,0,0,0
1565981066234.38,-5.12,0,0,0,0,0
1565981066250,-8.09,0,0,0,0,0
1565981066265.63,-11.56,0,0,0,0,0
1565981066281.25,-15.18,0,0,0,0,0
1565981066296.88,-18.57,0,0,0,0,0
1565981066312.5,-21.42,0,0,0,0,0
1565981066328.13,-23.62,0,0,0,0,0
1565981066343.75,-25.2,0,0,0,0,0
1565981066359.38,-26.27,0,0,0,0,0
1565981066375,-26.86,0,0,0,0,0
1565981066390.63,-26.87,0,0,0,0,0
1565981066406.25,-26.11,0,0,0,0,0
1565981066421.88,-24.47,0,0,0,0,0
1565981066437.5,-22.03,0,0,0,0,0
1565981066453.13,-19.05,0,0,0,0,0
1565981066468.75,-15.96,0,0,0,0,0
1565981066484.38,-13.13,0,0,0,0,0
1565981066500,-10.8,0,0,0,0,0
1565981066515.63,-9.02,0,0,0,0,0
1565981066531.25,-7.66,0,0,0,0,0
1565981066546.88,-6.56,0,0,0,0,0
1565981066562.5,-5.58,0,0,0,0,0
1565981066578.13,-4.68,0,0,0,0,0
1565981066593.75,-3.89,0,0,0,0,0
1565981066609.38,-3.31,0,0,0,0,0
1565981066625,-3.07,0,0,0,0,0
1565981066640.63,-3.29,0,0,0,0,0
1565981066656.25,-4.11,0,0,0,0,0
1565981066671.88,-5.55,0,0,0,0,0
1565981066687.5,-7.37,0,0,0,0,0
1565981066703.13,-9.08,0,0,0,0,0
1565981066718.75,-9.93,0,0,0,0,0
1565981066734.38,-9.1,0,0,0,0,0
1565981066750,-6.01,0,0,0,0,0
1565981066765.63,-0.52,0,0,0,0,0
1565981066781.25,6.98,0,0,0,0,0
1565981066796.88,15.63,0,0,0,0,0
1565981066812.5,24.39,0,0,0,0,0
1565981066828.13,32.35,0,0,0,0,0
1565981066843.75,38.97,0,0,0,0,0
1565981066859.38,44.07,0,0,0,0,0
1565981066875,47.78,0,0,0,0,0
1565981066890.63,50.27,0,0,0,0,0
1565981066906.25,51.63,0,0,0,0,0
1565981066921.88,51.84,0,0,0,0,0
1565981066937.5,50.88,0,0,0,0,0
1565981066953.13,48.82,0,0,0,0,0
1565981066968.75,45.99,0,0,0,0,0
1565981066984.38,42.87,0,0,0,0,0
1565981067000,39.95,0,0,0,0,0
1565981067015.63,37.58,0,0,0,0,0
1565981067031.25,35.79,0,0,0,0,0
1565981067046.88,34.32,0,0,0,0,0
1565981067062.5,32.83,0,0,0,0,0
1565981067078.13,31.07,0,0,0,0,0
1565981067093.75,29.01,0,0,0,0,0
1565981067109.38,26.88,0,0,0,0,0
1565981067125,24.94,0,0,0,0,0
1565981067140.63,23.32,0,0,0,0,0
1565981067156.25,21.92,0,0,0,0,0
1565981067171.88,20.4,0,0,0,0,0
1565981067187.5,18.36,0,0,0,0,0
1565981067203.13,15.48,0,0,0,0,0
1565981067218.75,11.64,0,0,0,0,0
1565981067234.38,6.93,0,0,0,0,0
1565981067250,1.5,0,0,0,0,0
1565981067265.63,-4.44,0,0,0,0,0
1565981067281.25,-10.73,0,0,0,0,0
1565981067296.88,-17.2,0,0,0,0,0
1565981067312.5,-23.67,0,0,0,0,0
1565981067328.13,-29.92,0,0,0,0,0
1565981067343.75,-35.85,0,0,0,0,0
1565981067359.38,-41.47,0,0,0,0,0
1565981067375,-46.98,0,0,0,0,0
1565981067390.63,-52.66,0,0,0,0,0
1565981067406.25,-58.71,0,0,0,0,0
1565981067421.88,-65.07,0,0,0,0,0
1565981067437.5,-71.26,0,0,0,0,0
1565981067453.13,-76.44,0,0,0,0,0
1565981067468.75,-79.58,0,0,0,0,0
1565981067484.38,-79.78,0,0,0,0,0
1565981067500,-76.66,0,0,0,0,0
1565981067515.63,-70.44,0,0,0,0,0
1565981067531.25,-61.89,0,0,0,0,0
1565981067546.88,-52.1,0,0,0,0,0
1565981067562.5,-42.04,0,0,0,0,0
1565981067578.13,-32.39,0,0,0,0,0
1565981067593.75,-23.49,0,0,0,0,0
1565981067609.38,-15.49,0,0,0,0,0
1565981067625,-8.49,0,0,0,0,0
1565981067640.63,-2.66,0,0,0,0,0
1565981067656.25,1.9,0,0,0,0,0
1565981067671.88,5.17,0,0,0,0,0
1565981067687.5,7.38,0,0,0,0,0
1565981067703.13,8.88,0,0,0,0,0
1565981067718.75,10.03,0,0,0,0,0
1565981067734.38,11.04,0,0,0,0,0
1565981067750,11.96,0,0,0,0,0
1565981067765.63,12.76,0,0,0,0,0
1565981067781.25,13.44,0,0,0,0,0
1565981067796.88,14.12,0,0,0,0,0
1565981067812.5,15.02,0,0,0,0,0
1565981067828.13,16.41,0,0,0,0,0
1565981067843.75,18.46,0,0,0,0,0
1565981067859.38,21.18,0,0,0,0,0
1565981067875,24.32,0,0,0,0,0
1565981067890.63,27.48,0,0,0,0,0
1565981067906.25,30.12,0,0,0,0,0
1565981067921.88,31.8,0,0,0,0,0
1565981067937.5,32.25,0,0,0,0,0
1565981067953.13,31.5,0,0,0,0,0
1565981067968.75,29.88,0,0,0,0,0
1565981067984.38,27.91,0,0,0,0,0
1565981068000,26.05,0,0,0,0,0
1565981068015.63,24.58,0,0,0,0,0
1565981068031.25,23.46,0,0,0,0,0
1565981068046.88,22.35,0,0,0,0,0
1565981068062.5,20.82,0,0,0,0,0
1565981068078.13,18.46,0,0,0,0,0
1565981068093.75,15.08,0,0,0,0,0
1565981068109.38,10.78,0,0,0,0,0
1565981068125,6,0,0,0,0,0
1565981068140.63,1.44,0,0,0,0,0
1565981068156.25,-2.09,0,0,0,0,0
1565981068171.88,-3.84,0,0,0,0,0
1565981068187.5,-3.34,0,0,0,0,0
1565981068203.13,-0.55,0,0,0,0,0
1565981068218.75,4.17,0,0,0,0,0
1565981068234.38,10.12,0,0,0,0,0
1565981068250,16.47,0,0,0,0,0
1565981068265.63,22.48,0,0,0,0,0
1565981068281.25,27.62,0,0,0,0,0
1565981068296.88,31.58,0,0,0,0,0
1565981068312.5,34.18,0,0,0,0,0
1565981068328.13,35.33,0,0,0,0,0
1565981068343.75,34.92,0,0,0,0,0
1565981068359.38,32.95,0,0,0,0,0
1565981068375,29.53,0,0,0,0,0
1565981068390.63,24.99,0,0,0,0,0
1565981068406.25,19.75,0,0,0,0,0
1565981068421.88,14.29,0,0,0,0,0
1565981068437.5,8.96,0,0,0,0,0
1565981068453.13,3.99,0,0,0,0,0
1565981068468.75,-0.55,0,0,0,0,0
1565981068484.38,-4.7,0,0,0,0,0
1565981068500,-8.57,0,0,0,0,0
1565981068515.63,-12.26,0,0,0,0,0
1565981068531.25,-15.82,0,0,0,0,0
1565981068546.88,-19.21,0,0,0,0,0
1565981068562.5,-22.36,0,0,0,0,0
1565981068578.13,-25.21,0,0,0,0,0
1565981068593.75,-27.73,0,0,0,0,0
1565981068609.38,-29.99,0,0,0,0,0
1565981068625,-32.18,0,0,0,0,0
1565981068640.63,-34.39,0,0,0,0,0
1565981068656.25,-36.63,0,0,0,0,0
1565981068671.88,-38.76,0,0,0,0,0
1565981068687.5,-40.53,0,0,0,0,0
1565981068703.13,-41.79,0,0,0,0,0
1565981068718.75,-42.54,0,0,0,0,0
1565981068734.38,-42.98,0,0,0,0,0
1565981068750,-43.4,0,0,0,0,0
1565981068765.63,-44.02,0,0,0,0,0
1565981068781.25,-44.9,0,0,0,0,0
1565981068796.88,-45.98,0,0,0,0,0
1565981068812.5,-47.17,0,0,0,0,0
1565981068828.13,-48.35,0,0,0,0,0
1565981068843.75,-49.3,0,0,0,0,0
1565981068859.38,-49.63,0,0,0,0,0
1565981068875,-48.7,0,0,0,0,0
1565981068890.63,-45.78,0,0,0,0,0
1565981068906.25,-40.35,0,0,0,0,0
1565981068921.88,-32.34,0,0,0,0,0
1565981068937.5,-22.28,0,0,0,0,0
1565981068953.13,-11.12,0,0,0,0,0
1565981068968.75,0.1,0,0,0,0,0
1565981068984.38,10.61,0,0,0,0,0
1565981069000,20.05,0,0,0,0,0
1565981069015.63,28.38,0,0,0,0,0
1565981069031.25,35.66,0,0,0,0,0
1565981069046.88,41.82,0,0,0,0,0
1565981069062.5,46.68,0,0,0,0,0
1565981069078.13,50.03,0,0,0,0,0
1565981069093.75,51.8,0,0,0,0,0
1565981069109.38,52.14,0,0,0,0,0
1565981069125,51.39,0,0,0,0,0
1565981069140.63,49.91,0,0,0,0,0
1565981069156.25,47.98,0,0,0,0,0
1565981069171.88,45.77,0,0,0,0,0
1565981069187.5,43.37,0,0,0,0,0
1565981069203.13,40.94,0,0,0,0,0
1565981069218.75,38.73,0,0,0,0,0
1565981069234.38,37.01,0,0,0,0,0
1565981069250,35.93,0,0,0,0,0
1565981069265.63,35.45,0,0,0,0,0
1565981069281.25,35.33,0,0,0,0,0
1565981069296.88,35.21,0,0,0,0,0
1565981069312.5,34.82,0,0,0,0,0
1565981069328.13,34.01,0,0,0,0,0
1565981069343.75,32.79,0,0,0,0,0
1565981069359.38,31.26,0,0,0,0,0
1565981069375,29.49,0,0,0,0,0
1565981069390.63,27.49,0,0,0,0,0
1565981069406.25,25.27,0,0,0,0,0
1565981069421.88,22.81,0,0,0,0,0
1565981069437.5,20.17,0,0,0,0,0
1565981069453.13,17.36,0,0,0,0,0
1565981069468.75,14.37,0,0,0,0,0
1565981069484.38,11.15,0,0,0,0,0
1565981069500,7.58,0,0,0,0,0
1565981069515.63,3.57,0,0,0,0,0
1565981069531.25,-0.96,0,0,0,0,0
1565981069546.88,-6.06,0,0,0,0,0
1565981069562.5,-11.81,0,0,0,0,0
1565981069578.13,-18.23,0,0,0,0,0
1565981069593.75,-25.22,0,0,0,0,0
1565981069609.38,-32.44,0,0,0,0,0
1565981069625,-39.27,0,0,0,0,0
1565981069640.63,-44.92,0,0,0,0,0
1565981069656.25,-48.63,0,0,0,0,0
1565981069671.88,-49.95,0,0,0,0,0
1565981069687.5,-48.88,0,0,0,0,0
1565981069703.13,-45.83,0,0,0,0,0
1565981069718.75,-41.51,0,0,0,0,0
1565981069734.38,-36.66,0,0,0,0,0
1565981069750,-31.92,0,0,0,0,0
1565981069765.63,-27.69,0,0,0,0,0
1565981069781.25,-24.19,0,0,0,0,0
1565981069796.88,-21.53,0,0,0,0,0
1565981069812.5,-19.7,0,0,0,0,0
1565981069828.13,-18.72,0,0,0,0,0
1565981069843.75,-18.5,0,0,0,0,0
1565981069859.38,-18.93,0,0,0,0,0
1565981069875,-19.85,0,0,0,0,0
1565981069890.63,-21.07,0,0,0,0,0
1565981069906.25,-22.4,0,0,0,0,0
1565981069921.88,-23.76,0,0,0,0,0
1565981069937.5,-25.02,0,0,0,0,0
1565981069953.13,-26.07,0,0,0,0,0
1565981069968.75,-26.71,0,0,0,0,0
1565981069984.38,-26.69,0,0,0,0,0
1565981070000,-25.78,0,0,0,0,0
1565981070015.63,-23.86,0,0,0,0,0
1565981070031.25,-21.01,0,0,0,0,0
1565981070046.88,-17.51,0,0,0,0,0
1565981070062.5,-13.71,0,0,0,0,0
1565981070078.13,-9.96,0,0,0,0,0
1565981070093.75,-6.49,0,0,0,0,0
1565981070109.38,-3.43,0,0,0,0,0
1565981070125,-0.75,0,0,0,0,0
1565981070140.63,1.58,0,0,0,0,0
1565981070156.25,3.64,0,0,0,0,0
1565981070171.88,5.48,0,0,0,0,0
1565981070187.5,7.15,0,0,0,0,0
1565981070203.13,8.66,0,0,0,0,0
1565981070218.75,9.98,0,0,0,0,0
1565981070234.38,10.97,0,0,0,0,0
1565981070250,11.44,0,0,0,0,0
1565981070265.63,11.16,0,0,0,0,0
1565981070281.25,10.01,0,0,0,0,0
1565981070296.88,8.03,0,0,0,0,0
1565981070312.5,5.53,0,0,0,0,0
1565981070328.13,3.05,0,0,0,0,0
1565981070343.75,1.36,0,0,0,0,0
1565981070359.38,1.21,0,0,0,0,0
1565981070375,3.15,0,0,0,0,0
1565981070390.63,7.36,0,0,0,0,0
1565981070406.25,13.48,0,0,0,0,0
1565981070421.88,20.8,0,0,0,0,0
1565981070437.5,28.38,0,0,0,0,0
1565981070453.13,35.35,0,0,0,0,0
1565981070468.75,41.11,0,0,0,0,0
