Timestamp,BVP,Note,AGG,ED,SIB,Condition
1564665754000,-0,0,0,0,0,0
1564665754015.63,-0,0,0,0,0,0
1564665754031.25,-0,0,0,0,0,0
1564665754046.88,-0,0,0,0,0,0
1564665754062.5,-0,0,0,0,0,0
1564665754078.13,-0,0,0,0,0,0
1564665754093.75,-0,0,0,0,0,0
1564665754109.38,-0,0,0,0,0,0
1564665754125,-0,0,0,0,0,0
1564665754140.63,-0,0,0,0,0,0
1564665754156.25,0,0,0,0,0,0
1564665754171.88,0.01,0,0,0,0,0
1564665754187.5,0.01,0,0,0,0,0
1564665754203.13,-0,0,0,0,0,0
1564665754218.75,-0.03,0,0,0,0,0
1564665754234.38,-0.05,0,0,0,0,0
1564665754250,-0.05,0,0,0,0,0
1564665754265.63,0,0,0,0,0,0
1564665754281.25,0.13,0,0,0,0,0
1564665754296.88,0.36,0,0,0,0,0
1564665754312.5,0.66,0,0,0,0,0
1564665754328.13,1.01,0,0,0,0,0
1564665754343.75,1.37,0,0,0,0,0
1564665754359.38,1.72,0,0,0,0,0
1564665754375,2.06,0,0,0,0,0
1564665754390.63,2.4,0,0,0,0,0
1564665754406.25,2.79,0,0,0,0,0
1564665754421.88,3.24,0,0,0,0,0
1564665754437.5,3.8,0,0,0,0,0
1564665754453.13,4.42,0,0,0,0,0
1564665754468.75,5.06,0,0,0,0,0
1564665754484.38,5.66,0,0,0,0,0
1564665754500,6.2,0,0,0,0,0
1564665754515.63,6.68,0,0,0,0,0
1564665754531.25,7.15,0,0,0,0,0
1564665754546.88,7.68,0,0,0,0,0
1564665754562.5,8.31,0,0,0,0,0
1564665754578.13,9.14,0,0,0,0,0
1564665754593.75,10.09,0,0,0,0,0
1564665754609.38,11.04,0,0,0,0,0
1564665754625,11.88,0,0,0,0,0
1564665754640.63,12.56,0,0,0,0,0
1564665754656.25,13.14,0,0,0,0,0
1564665754671.88,13.76,0,0,0,0,0
1564665754687.5,14.65,0,0,0,0,0
1564665754703.13,15.96,0,0,0,0,0
1564665754718.75,17.91,0,0,0,0,0
1564665754734.38,20.32,0,0,0,0,0
1564665754750,22.9,0,0,0,0,0
1564665754765.63,25.38,0,0,0,0,0
1564665754781.25,27.58,0,0,0,0,0
1564665754796.88,29.57,0,0,0,0,0
1564665754812.5,31.68,0,0,0,0,0
1564665754828.13,34.32,0,0,0,0,0
1564665754843.75,37.81,0,0,0,0,0
1564665754859.38,42.54,0,0,0,0,0
1564665754875,48.15,0,0,0,0,0
1564665754890.63,54.1,0,0,0,0,0
1564665754906.25,59.83,0,0,0,0,0
1564665754921.88,64.97,0,0,0,0,0
1564665754937.5,69.58,0,0,0,0,0
1564665754953.13,74.14,0,0,0,0,0
1564665754968.75,79.34,0,0,0,0,0
1564665754984.38,85.71,0,0,0,0,0
1564665755000,93.76,0,0,0,0,0
1564665755015.63,103,0,0,0,0,0
1564665755031.25,112.62,0,0,0,0,0
1564665755046.88,121.73,0,0,0,0,0
1564665755062.5,129.77,0,0,0,0,0
1564665755078.13,136.75,0,0,0,0,0
1564665755093.75,143.3,0,0,0,0,0
1564665755109.38,150.75,0,0,0,0,0
1564665755125,157.77,0,0,0,0,0
1564665755140.63,166.64,0,0,0,0,0
1564665755156.25,177.95,0,0,0,0,0
1564665755171.88,191.79,0,0,0,0,0
1564665755187.5,206.97,0,0,0,0,0
1564665755203.13,220.57,0,0,0,0,0
1564665755218.75,228.25,0,0,0,0,0
1564665755234.38,225.36,0,0,0,0,0
1564665755250,208.53,0,0,0,0,0
1564665755265.63,176.87,0,0,0,0,0
1564665755281.25,132.76,0,0,0,0,0
1564665755296.88,80.05,0,0,0,0,0
1564665755312.5,23.07,0,0,0,0,0
1564665755328.13,-34.94,0,0,0,0,0
1564665755343.75,-92.44,0,0,0,0,0
1564665755359.38,-149.16,0,0,0,0,0
1564665755375,-205.23,0,0,0,0,0
1564665755390.63,-260.37,0,0,0,0,0
1564665755406.25,-313.74,0,0,0,0,0
1564665755421.88,-363.87,0,0,0,0,0
1564665755437.5,-409.83,0,0,0,0,0
1564665755453.13,-450.91,0,0,0,0,0
1564665755468.75,-486.5,0,0,0,0,0
1564665755484.38,-515.74,0,0,0,0,0
1564665755500,-537.23,0,0,0,0,0
1564665755515.63,-549.22,0,0,0,0,0
1564665755531.25,-549.96,0,0,0,0,0
1564665755546.88,-538.36,0,0,0,0,0
1564665755562.5,-514.19,0,0,0,0,0
1564665755578.13,-478.64,0,0,0,0,0
1564665755593.75,-433.82,0,0,0,0,0
1564665755609.38,-382.37,0,0,0,0,0
1564665755625,-326.91,0,0,0,0,0
1564665755640.63,-269.69,0,0,0,0,0
1564665755656.25,-212.44,0,0,0,0,0
1564665755671.88,-156.42,0,0,0,0,0
1564665755687.5,-102.66,0,0,0,0,0
1564665755703.13,-52.02,0,0,0,0,0
1564665755718.75,-5.49,0,0,0,0,0
1564665755734.38,36.06,0,0,0,0,0
1564665755750,71.97,0,0,0,0,0
1564665755765.63,101.96,0,0,0,0,0
1564665755781.25,126.18,0,0,0,0,0
1564665755796.88,145.13,0,0,0,0,0
1564665755812.5,159.52,0,0,0,0,0
1564665755828.13,170.05,0,0,0,0,0
1564665755843.75,177.36,0,0,0,0,0
1564665755859.38,181.83,0,0,0,0,0
1564665755875,183.75,0,0,0,0,0
1564665755890.63,183.35,0,0,0,0,0
1564665755906.25,180.9,0,0,0,0,0
1564665755921.88,176.75,0,0,0,0,0
1564665755937.5,171.32,0,0,0,0,0
1564665755953.13,165,0,0,0,0,0
1564665755968.75,158.15,0,0,0,0,0
1564665755984.38,151.01,0,0,0,0,0
1564665756000,143.72,0,0,0,0,0
1564665756015.63,136.36,0,0,0,0,0
1564665756031.25,128.97,0,0,0,0,0
1564665756046.88,121.59,0,0,0,0,0
1564665756062.5,114.28,0,0,0,0,0
1564665756078.13,107.13,0,0,0,0,0
1564665756093.75,100.19,0,0,0,0,0
1564665756109.38,93.52,0,0,0,0,0
1564665756125,87.16,0,0,0,0,0
1564665756140.63,81.13,0,0,0,0,0
1564665756156.25,75.42,0,0,0,0,0
1564665756171.88,70.06,0,0,0,0,0
1564665756187.5,65.06,0,0,0,0,0
1564665756203.13,60.41,0,0,0,0,0
1564665756218.75,56.14,0,0,0,0,0
1564665756234.38,52.25,0,0,0,0,0
1564665756250,48.72,0,0,0,0,0
1564665756265.63,45.57,0,0,0,0,0
1564665756281.25,42.78,0,0,0,0,0
1564665756296.88,40.35,0,0,0,0,0
1564665756312.5,38.27,0,0,0,0,0
1564665756328.13,36.53,0,0,0,0,0
1564665756343.75,35.12,0,0,0,0,0
1564665756359.38,34.06,0,0,0,0,0
1564665756375,33.34,0,0,0,0,0
1564665756390.63,32.95,0,0,0,0,0
1564665756406.25,32.89,0,0,0,0,0
1564665756421.88,33.13,0,0,0,0,0
1564665756437.5,33.64,0,0,0,0,0
1564665756453.13,34.35,0,0,0,0,0
1564665756468.75,35.16,0,0,0,0,0
1564665756484.38,35.94,0,0,0,0,0
1564665756500,36.57,0,0,0,0,0
1564665756515.63,36.84,0,0,0,0,0
1564665756531.25,36.59,0,0,0,0,0
1564665756546.88,35.66,0,0,0,0,0
1564665756562.5,33.9,0,0,0,0,0
1564665756578.13,31.25,0,0,0,0,0
1564665756593.75,27.67,0,0,0,0,0
1564665756609.38,23.23,0,0,0,0,0
1564665756625,18.02,0,0,0,0,0
1564665756640.63,12.23,0,0,0,0,0
1564665756656.25,6.11,0,0,0,0,0
1564665756671.88,-0.09,0,0,0,0,0
1564665756687.5,-6.07,0,0,0,0,0
1564665756703.13,-11.57,0,0,0,0,0
1564665756718.75,-16.39,0,0,0,0,0
1564665756734.38,-20.34,0,0,0,0,0
1564665756750,-23.33,0,0,0,0,0
1564665756765.63,-25.33,0,0,0,0,0
1564665756781.25,-26.37,0,0,0,0,0
1564665756796.88,-26.53,0,0,0,0,0
1564665756812.5,-25.94,0,0,0,0,0
1564665756828.13,-24.75,0,0,0,0,0
1564665756843.75,-23.12,0,0,0,0,0
1564665756859.38,-21.19,0,0,0,0,0
1564665756875,-19.07,0,0,0,0,0
1564665756890.63,-16.86,0,0,0,0,0
1564665756906.25,-14.61,0,0,0,0,0
1564665756921.88,-12.35,0,0,0,0,0
1564665756937.5,-10.1,0,0,0,0,0
1564665756953.13,-7.89,0,0,0,0,0
1564665756968.75,-5.69,0,0,0,0,0
1564665756984.38,-3.48,0,0,0,0,0
1564665757000,-1.24,0,0,0,0,0
1564665757015.63,1.06,0,0,0,0,0
1564665757031.25,3.47,0,0,0,0,0
1564665757046.88,6.01,0,0,0,0,0
1564665757062.5,8.73,0,0,0,0,0
1564665757078.13,11.6,0,0,0,0,0
1564665757093.75,14.61,0,0,0,0,0
1564665757109.38,17.76,0,0,0,0,0
1564665757125,21.03,0,0,0,0,0
1564665757140.63,24.46,0,0,0,0,0
1564665757156.25,28.05,0,0,0,0,0
1564665757171.88,31.82,0,0,0,0,0
1564665757187.5,35.8,0,0,0,0,0
1564665757203.13,40.06,0,0,0,0,0
1564665757218.75,44.47,0,0,0,0,0
1564665757234.38,48.96,0,0,0,0,0
1564665757250,53.49,0,0,0,0,0
1564665757265.63,58.03,0,0,0,0,0
1564665757281.25,62.56,0,0,0,0,0
1564665757296.88,67.09,0,0,0,0,0
1564665757312.5,71.66,0,0,0,0,0
1564665757328.13,76.34,0,0,0,0,0
1564665757343.75,81.25,0,0,0,0,0
1564665757359.38,86.24,0,0,0,0,0
1564665757375,91.26,0,0,0,0,0
1564665757390.63,96.29,0,0,0,0,0
1564665757406.25,101.34,0,0,0,0,0
1564665757421.88,106.43,0,0,0,0,0
1564665757437.5,111.6,0,0,0,0,0
1564665757453.13,116.87,0,0,0,0,0
1564665757468.75,122.29,0,0,0,0,0
1564665757484.38,127.93,0,0,0,0,0
1564665757500,133.5,0,0,0,0,0
1564665757515.63,138.74,0,0,0,0,0
1564665757531.25,143.43,0,0,0,0,0
1564665757546.88,147.29,0,0,0,0,0
1564665757562.5,150.04,0,0,0,0,0
1564665757578.13,151.25,0,0,0,0,0
1564665757593.75,150.38,0,0,0,0,0
1564665757609.38,146.66,0,0,0,0,0
1564665757625,141.51,0,0,0,0,0
1564665757640.63,135.42,0,0,0,0,0
1564665757656.25,128.71,0,0,0,0,0
1564665757671.88,121.61,0,0,0,0,0
1564665757687.5,114.29,0,0,0,0,0
1564665757703.13,106.91,0,0,0,0,0
1564665757718.75,99.59,0,0,0,0,0
1564665757734.38,92.44,0,0,0,0,0
1564665757750,85.56,0,0,0,0,0
1564665757765.63,79.08,0,0,0,0,0
1564665757781.25,72.81,0,0,0,0,0
1564665757796.88,66.66,0,0,0,0,0
1564665757812.5,60.6,0,0,0,0,0
1564665757828.13,54.67,0,0,0,0,0
1564665757843.75,48.9,0,0,0,0,0
1564665757859.38,43.35,0,0,0,0,0
1564665757875,38.05,0,0,0,0,0
1564665757890.63,33.05,0,0,0,0,0
1564665757906.25,28.44,0,0,0,0,0
1564665757921.88,24.05,0,0,0,0,0
1564665757937.5,19.8,0,0,0,0,0
1564665757953.13,15.71,0,0,0,0,0
1564665757968.75,11.79,0,0,0,0,0
1564665757984.38,8.07,0,0,0,0,0
1564665758000,4.55,0,0,0,0,0
1564665758015.63,1.16,0,0,0,0,0
1564665758031.25,-2.15,0,0,0,0,0
1564665758046.88,-5.45,0,0,0,0,0
1564665758062.5,-8.9,0,0,0,0,0
1564665758078.13,-12.53,0,0,0,0,0
1564665758093.75,-16.25,0,0,0,0,0
1564665758109.38,-19.92,0,0,0,0,0
1564665758125,-23.41,0,0,0,0,0
1564665758140.63,-26.67,0,0,0,0,0
1564665758156.25,-29.82,0,0,0,0,0
1564665758171.88,-33.11,0,0,0,0,0
1564665758187.5,-36.77,0,0,0,0,0
1564665758203.13,-41.03,0,0,0,0,0
1564665758218.75,-45.91,0,0,0,0,0
1564665758234.38,-51.21,0,0,0,0,0
1564665758250,-56.62,0,0,0,0,0
1564665758265.63,-61.91,0,0,0,0,0
1564665758281.25,-67.07,0,0,0,0,0
1564665758296.88,-72.37,0,0,0,0,0
1564665758312.5,-78.26,0,0,0,0,0
1564665758328.13,-85.24,0,0,0,0,0
1564665758343.75,-93.56,0,0,0,0,0
1564665758359.38,-103.15,0,0,0,0,0
1564665758375,-113.6,0,0,0,0,0
1564665758390.63,-124.43,0,0,0,0,0
1564665758406.25,-135.32,0,0,0,0,0
1564665758421.88,-146.38,0,0,0,0,0
1564665758437.5,-158.06,0,0,0,0,0
1564665758453.13,-171,0,0,0,0,0
1564665758468.75,-185.58,0,0,0,0,0
1564665758484.38,-201.78,0,0,0,0,0
1564665758500,-219.13,0,0,0,0,0
1564665758515.63,-237.06,0,0,0,0,0
1564665758531.25,-255.21,0,0,0,0,0
1564665758546.88,-273.42,0,0,0,0,0
1564665758562.5,-291.53,0,0,0,0,0
1564665758578.13,-309.04,0,0,0,0,0
1564665758593.75,-324.95,0,0,0,0,0
1564665758609.38,-338.22,0,0,0,0,0
1564665758625,-348.38,0,0,0,0,0
1564665758640.63,-355.9,0,0,0,0,0
1564665758656.25,-362.03,0,0,0,0,0
1564665758671.88,-367.88,0,0,0,0,0
1564665758687.5,-373.4,0,0,0,0,0
1564665758703.13,-376.89,0,0,0,0,0
1564665758718.75,-375.48,0,0,0,0,0
1564665758734.38,-366.35,0,0,0,0,0
1564665758750,-347.97,0,0,0,0,0
1564665758765.63,-320.5,0,0,0,0,0
1564665758781.25,-285.21,0,0,0,0,0
1564665758796.88,-243.28,0,0,0,0,0
1564665758812.5,-195.22,0,0,0,0,0
1564665758828.13,-141.09,0,0,0,0,0
1564665758843.75,-81.66,0,0,0,0,0
1564665758859.38,-19.63,0,0,0,0,0
1564665758875,40.17,0,0,0,0,0
1564665758890.63,91.83,0,0,0,0,0
1564665758906.25,130.2,0,0,0,0,0
1564665758921.88,152.79,0,0,0,0,0
1564665758937.5,160.52,0,0,0,0,0
1564665758953.13,157.08,0,0,0,0,0
1564665758968.75,147.45,0,0,0,0,0
1564665758984.38,136.11,0,0,0,0,0
1564665759000,125.98,0,0,0,0,0
1564665759015.63,118.19,0,0,0,0,0
1564665759031.25,112.71,0,0,0,0,0
1564665759046.88,109.11,0,0,0,0,0
1564665759062.5,107.21,0,0,0,0,0
1564665759078.13,107.14,0,0,0,0,0
1564665759093.75,108.98,0,0,0,0,0
1564665759109.38,112.46,0,0,0,0,0
1564665759125,116.67,0,0,0,0,0
1564665759140.63,120.19,0,0,0,0,0
1564665759156.25,121.59,0,0,0,0,0
1564665759171.88,120.01,0,0,0,0,0
1564665759187.5,115.47,0,0,0,0,0
1564665759203.13,108.89,0,0,0,0,0
1564665759218.75,101.63,0,0,0,0,0
1564665759234.38,94.89,0,0,0,0,0
1564665759250,89.2,0,0,0,0,0
1564665759265.63,84.28,0,0,0,0,0
1564665759281.25,79.34,0,0,0,0,0
1564665759296.88,73.56,0,0,0,0,0
1564665759312.5,66.67,0,0,0,0,0
1564665759328.13,59.1,0,0,0,0,0
1564665759343.75,51.77,0,0,0,0,0
1564665759359.38,45.7,0,0,0,0,0
1564665759375,41.4,0,0,0,0,0
1564665759390.63,38.81,0,0,0,0,0
1564665759406.25,37.33,0,0,0,0,0
1564665759421.88,36.11,0,0,0,0,0
1564665759437.5,34.2,0,0,0,0,0
1564665759453.13,30.54,0,0,0,0,0
1564665759468.75,23.97,0,0,0,0,0
1564665759484.38,13.53,0,0,0,0,0
1564665759500,-0.91,0,0,0,0,0
1564665759515.63,-17.88,0,0,0,0,0
1564665759531.25,-34.18,0,0,0,0,0
1564665759546.88,-45.47,0,0,0,0,0
1564665759562.5,-47.6,0,0,0,0,0
1564665759578.13,-38.08,0,0,0,0,0
1564665759593.75,-16.92,0,0,0,0,0
1564665759609.38,13.37,0,0,0,0,0
1564665759625,48.63,0,0,0,0,0
1564665759640.63,84.08,0,0,0,0,0
1564665759656.25,115.13,0,0,0,0,0
1564665759671.88,137.81,0,0,0,0,0
1564665759687.5,149.16,0,0,0,0,0
1564665759703.13,147.66,0,0,0,0,0
1564665759718.75,133.75,0,0,0,0,0
1564665759734.38,110.05,0,0,0,0,0
1564665759750,80.95,0,0,0,0,0
1564665759765.63,51.41,0,0,0,0,0
1564665759781.25,25.62,0,0,0,0,0
1564665759796.88,5.89,0,0,0,0,0
1564665759812.5,-7.43,0,0,0,0,0
1564665759828.13,-15.39,0,0,0,0,0
1564665759843.75,-19.53,0,0,0,0,0
1564665759859.38,-21.03,0,0,0,0,0
1564665759875,-20.49,0,0,0,0,0
1564665759890.63,-18.07,0,0,0,0,0
1564665759906.25,-13.79,0,0,0,0,0
1564665759921.88,-7.75,0,0,0,0,0
1564665759937.5,-0.14,0,0,0,0,0
1564665759953.13,8.76,0,0,0,0,0
1564665759968.75,18.46,0,0,0,0,0
1564665759984.38,28.03,0,0,0,0,0
1564665760000,35.99,0,0,0,0,0
1564665760015.63,40.34,0,0,0,0,0
1564665760031.25,39.15,0,0,0,0,0
1564665760046.88,31.24,0,0,0,0,0
1564665760062.5,16.78,0,0,0,0,0
1564665760078.13,-2.62,0,0,0,0,0
1564665760093.75,-24.42,0,0,0,0,0
1564665760109.38,-46.1,0,0,0,0,0
1564665760125,-65.9,0,0,0,0,0
1564665760140.63,-83.25,0,0,0,0,0
1564665760156.25,-98.56,0,0,0,0,0
1564665760171.88,-112.51,0,0,0,0,0
1564665760187.5,-125.54,0,0,0,0,0
1564665760203.13,-137.38,0,0,0,0,0
1564665760218.75,-147.27,0,0,0,0,0
1564665760234.38,-154.23,0,0,0,0,0
1564665760250,-157.64,0,0,0,0,0
1564665760265.63,-157.49,0,0,0,0,0
1564665760281.25,-154.32,0,0,0,0,0
1564665760296.88,-149.07,0,0,0,0,0
1564665760312.5,-142.68,0,0,0,0,0
1564665760328.13,-135.9,0,0,0,0,0
1564665760343.75,-129.17,0,0,0,0,0
1564665760359.38,-122.64,0,0,0,0,0
1564665760375,-116.33,0,0,0,0,0
1564665760390.63,-110.03,0,0,0,0,0
1564665760406.25,-103.35,0,0,0,0,0
1564665760421.88,-95.58,0,0,0,0,0
1564665760437.5,-85.79,0,0,0,0,0
1564665760453.13,-73.05,0,0,0,0,0
1564665760468.75,-56.88,0,0,0,0,0
1564665760484.38,-37.59,0,0,0,0,0
1564665760500,-16.45,0,0,0,0,0
1564665760515.63,4.67,0,0,0,0,0
1564665760531.25,23.87,0,0,0,0,0
1564665760546.88,39.94,0,0,0,0,0
1564665760562.5,52.64,0,0,0,0,0
1564665760578.13,62.62,0,0,0,0,0
1564665760593.75,70.91,0,0,0,0,0
1564665760609.38,78.3,0,0,0,0,0
1564665760625,85.02,0,0,0,0,0
1564665760640.63,90.78,0,0,0,0,0
1564665760656.25,95.07,0,0,0,0,0
1564665760671.88,97.55,0,0,0,0,0
1564665760687.5,98.21,0,0,0,0,0
1564665760703.13,97.43,0,0,0,0,0
1564665760718.75,95.71,0,0,0,0,0
1564665760734.38,93.53,0,0,0,0,0
1564665760750,91.21,0,0,0,0,0
1564665760765.63,88.99,0,0,0,0,0
1564665760781.25,87.07,0,0,0,0,0
1564665760796.88,85.73,0,0,0,0,0
1564665760812.5,85.3,0,0,0,0,0
1564665760828.13,85.97,0,0,0,0,0
1564665760843.75,87.6,0,0,0,0,0
1564665760859.38,89.53,0,0,0,0,0
1564665760875,90.53,0,0,0,0,0
1564665760890.63,89.05,0,0,0,0,0
1564665760906.25,83.57,0,0,0,0,0
1564665760921.88,73.21,0,0,0,0,0
1564665760937.5,58.05,0,0,0,0,0
1564665760953.13,39.22,0,0,0,0,0
1564665760968.75,18.63,0,0,0,0,0
1564665760984.38,-1.64,0,0,0,0,0
1564665761000,-19.89,0,0,0,0,0
1564665761015.63,-35.21,0,0,0,0,0
1564665761031.25,-47.52,0,0,0,0,0
1564665761046.88,-57.28,0,0,0,0,0
1564665761062.5,-65.1,0,0,0,0,0
1564665761078.13,-71.26,0,0,0,0,0
1564665761093.75,-75.65,0,0,0,0,0
1564665761109.38,-77.87,0,0,0,0,0
1564665761125,-77.75,0,0,0,0,0
1564665761140.63,-75.6,0,0,0,0,0
1564665761156.25,-72.36,0,0,0,0,0
1564665761171.88,-69.23,0,0,0,0,0
1564665761187.5,-67.16,0,0,0,0,0
1564665761203.13,-66.42,0,0,0,0,0
1564665761218.75,-66.58,0,0,0,0,0
1564665761234.38,-66.92,0,0,0,0,0
1564665761250,-67.15,0,0,0,0,0
1564665761265.63,-67.77,0,0,0,0,0
1564665761281.25,-70,0,0,0,0,0
1564665761296.88,-75.12,0,0,0,0,0
1564665761312.5,-83.59,0,0,0,0,0
1564665761328.13,-94.55,0,0,0,0,0
1564665761343.75,-105.88,0,0,0,0,0
1564665761359.38,-114.83,0,0,0,0,0
1564665761375,-118.94,0,0,0,0,0
1564665761390.63,-116.7,0,0,0,0,0
1564665761406.25,-107.83,0,0,0,0,0
1564665761421.88,-93.02,0,0,0,0,0
1564665761437.5,-73.6,0,0,0,0,0
1564665761453.13,-51.07,0,0,0,0,0
1564665761468.75,-26.93,0,0,0,0,0
1564665761484.38,-2.47,0,0,0,0,0
1564665761500,21.13,0,0,0,0,0
1564665761515.63,42.71,0,0,0,0,0
1564665761531.25,61.1,0,0,0,0,0
1564665761546.88,75.08,0,0,0,0,0
1564665761562.5,83.51,0,0,0,0,0
1564665761578.13,85.55,0,0,0,0,0
1564665761593.75,80.91,0,0,0,0,0
1564665761609.38,70.16,0,0,0,0,0
1564665761625,54.74,0,0,0,0,0
1564665761640.63,36.73,0,0,0,0,0
1564665761656.25,18.38,0,0,0,0,0
1564665761671.88,1.62,0,0,0,0,0
1564665761687.5,-12.26,0,0,0,0,0
1564665761703.13,-22.64,0,0,0,0,0
1564665761718.75,-29.39,0,0,0,0,0
1564665761734.38,-32.7,0,0,0,0,0
1564665761750,-33.08,0,0,0,0,0
1564665761765.63,-31.68,0,0,0,0,0
1564665761781.25,-30.21,0,0,0,0,0
1564665761796.88,-30.72,0,0,0,0,0
1564665761812.5,-34.74,0,0,0,0,0
1564665761828.13,-42.41,0,0,0,0,0
1564665761843.75,-52.11,0,0,0,0,0
1564665761859.38,-60.82,0,0,0,0,0
1564665761875,-65.25,0,0,0,0,0
1564665761890.63,-63.24,0,0,0,0,0
1564665761906.25,-54.59,0,0,0,0,0
1564665761921.88,-40.88,0,0,0,0,0
1564665761937.5,-24.59,0,0,0,0,0
1564665761953.13,-7.88,0,0,0,0,0
1564665761968.75,8.1,0,0,0,0,0
1564665761984.38,23.14,0,0,0,0,0
1564665762000,37.3,0,0,0,0,0
1564665762015.63,50.21,0,0,0,0,0
1564665762031.25,60.89,0,0,0,0,0
1564665762046.88,68.17,0,0,0,0,0
1564665762062.5,71.34,0,0,0,0,0
1564665762078.13,70.58,0,0,0,0,0
1564665762093.75,67.01,0,0,0,0,0
1564665762109.38,62.12,0,0,0,0,0
1564665762125,57.26,0,0,0,0,0
1564665762140.63,53.18,0,0,0,0,0
1564665762156.25,50,0,0,0,0,0
1564665762171.88,47.51,0,0,0,0,0
1564665762187.5,45.4,0,0,0,0,0
1564665762203.13,43.57,0,0,0,0,0
1564665762218.75,42.01,0,0,0,0,0
1564665762234.38,40.68,0,0,0,0,0
1564665762250,39.35,0,0,0,0,0
1564665762265.63,37.4,0,0,0,0,0
1564665762281.25,33.98,0,0,0,0,0
1564665762296.88,28.09,0,0,0,0,0
1564665762312.5,18.99,0,0,0,0,0
1564665762328.13,6.62,0,0,0,0,0
1564665762343.75,-8.19,0,0,0,0,0
1564665762359.38,-23.82,0,0,0,0,0
1564665762375,-38.42,0,0,0,0,0
1564665762390.63,-50.68,0,0,0,0,0
1564665762406.25,-60.34,0,0,0,0,0
1564665762421.88,-68.32,0,0,0,0,0
1564665762437.5,-76.25,0,0,0,0,0
1564665762453.13,-85.7,0,0,0,0,0
1564665762468.75,-97.64,0,0,0,0,0
1564665762484.38,-112.07,0,0,0,0,0
1564665762500,-128.16,0,0,0,0,0
1564665762515.63,-144.45,0,0,0,0,0
1564665762531.25,-159.14,0,0,0,0,0
1564665762546.88,-170.28,0,0,0,0,0
1564665762562.5,-175.82,0,0,0,0,0
1564665762578.13,-173.87,0,0,0,0,0
1564665762593.75,-162.83,0,0,0,0,0
1564665762609.38,-141.69,0,0,0,0,0
1564665762625,-110.13,0,0,0,0,0
1564665762640.63,-68.72,0,0,0,0,0
1564665762656.25,-19.23,0,0,0,0,0
1564665762671.88,35.09,0,0,0,0,0
1564665762687.5,89.5,0,0,0,0,0
1564665762703.13,138.47,0,0,0,0,0
1564665762718.75,177.07,0,0,0,0,0
1564665762734.38,202.44,0,0,0,0,0
1564665762750,214.99,0,0,0,0,0
1564665762765.63,218.29,0,0,0,0,0
1564665762781.25,217.78,0,0,0,0,0
1564665762796.88,218.81,0,0,0,0,0
1564665762812.5,224.85,0,0,0,0,0
1564665762828.13,236.53,0,0,0,0,0
1564665762843.75,251.9,0,0,0,0,0
1564665762859.38,267.47,0,0,0,0,0
1564665762875,279.6,0,0,0,0,0
1564665762890.63,285.51,0,0,0,0,0
1564665762906.25,283.85,0,0,0,0,0
1564665762921.88,274.78,0,0,0,0,0
1564665762937.5,259.78,0,0,0,0,0
1564665762953.13,241.28,0,0,0,0,0
1564665762968.75,222.17,0,0,0,0,0
1564665762984.38,205.16,0,0,0,0,0
1564665763000,192.22,0,0,0,0,0
1564665763015.63,184.19,0,0,0,0,0
1564665763031.25,180.69,0,0,0,0,0
1564665763046.88,180.25,0,0,0,0,0
1564665763062.5,180.82,0,0,0,0,0
1564665763078.13,180.22,0,0,0,0,0
1564665763093.75,176.67,0,0,0,0,0
1564665763109.38,169.1,0,0,0,0,0
1564665763125,157.31,0,0,0,0,0
1564665763140.63,141.84,0,0,0,0,0
1564665763156.25,123.7,0,0,0,0,0
1564665763171.88,103.97,0,0,0,0,0
1564665763187.5,83.31,0,0,0,0,0
1564665763203.13,61.8,0,0,0,0,0
1564665763218.75,38.93,0,0,0,0,0
1564665763234.38,13.92,0,0,0,0,0
1564665763250,-13.71,0,0,0,0,0
1564665763265.63,-43.48,0,0,0,0,0
1564665763281.25,-73.69,0,0,0,0,0
1564665763296.88,-101.45,0,0,0,0,0
1564665763312.5,-123.43,0,0,0,0,0
1564665763328.13,-136.82,0,0,0,0,0
1564665763343.75,-140.25,0,0,0,0,0
1564665763359.38,-134.2,0,0,0,0,0
1564665763375,-120.92,0,0,0,0,0
1564665763390.63,-103.58,0,0,0,0,0
1564665763406.25,-85.46,0,0,0,0,0
1564665763421.88,-69.13,0,0,0,0,0
1564665763437.5,-56.15,0,0,0,0,0
1564665763453.13,-47.14,0,0,0,0,0
1564665763468.75,-42.05,0,0,0,0,0
1564665763484.38,-40.56,0,0,0,0,0
1564665763500,-42.25,0,0,0,0,0
1564665763515.63,-46.71,0,0,0,0,0
1564665763531.25,-53.44,0,0,0,0,0
1564665763546.88,-61.76,0,0,0,0,0
1564665763562.5,-70.75,0,0,0,0,0
1564665763578.13,-79.34,0,0,0,0,0
1564665763593.75,-86.47,0,0,0,0,0
1564665763609.38,-91.33,0,0,0,0,0
1564665763625,-93.58,0,0,0,0,0
1564665763640.63,-93.33,0,0,0,0,0
1564665763656.25,-91.13,0,0,0,0,0
1564665763671.88,-87.64,0,0,0,0,0
1564665763687.5,-83.44,0,0,0,0,0
1564665763703.13,-78.88,0,0,0,0,0
1564665763718.75,-73.94,0,0,0,0,0
1564665763734.38,-68.42,0,0,0,0,0
1564665763750,-62.06,0,0,0,0,0
1564665763765.63,-54.73,0,0,0,0,0
1564665763781.25,-46.61,0,0,0,0,0
1564665763796.88,-38.25,0,0,0,0,0
1564665763812.5,-30.49,0,0,0,0,0
1564665763828.13,-24.21,0,0,0,0,0
1564665763843.75,-20.12,0,0,0,0,0
1564665763859.38,-18.54,0,0,0,0,0
1564665763875,-19.31,0,0,0,0,0
1564665763890.63,-21.89,0,0,0,0,0
1564665763906.25,-25.57,0,0,0,0,0
1564665763921.88,-29.67,0,0,0,0,0
1564665763937.5,-33.59,0,0,0,0,0
1564665763953.13,-36.9,0,0,0,0,0
1564665763968.75,-39.33,0,0,0,0,0
1564665763984.38,-40.89,0,0,0,0,0
1564665764000,-41.9,0,0,0,0,0
1564665764015.63,-42.94,0,0,0,0,0
1564665764031.25,-44.72,0,0,0,0,0
1564665764046.88,-47.57,0,0,0,0,0
1564665764062.5,-51.1,0,0,0,0,0
1564665764078.13,-54.02,0,0,0,0,0
1564665764093.75,-54.38,0,0,0,0,0
1564665764109.38,-50.19,0,0,0,0,0
1564665764125,-40.23,0,0,0,0,0
1564665764140.63,-24.57,0,0,0,0,0
1564665764156.25,-4.6,0,0,0,0,0
1564665764171.88,17.43,0,0,0,0,0
1564665764187.5,39.17,0,0,0,0,0
1564665764203.13,58.73,0,0,0,0,0
1564665764218.75,75.12,0,0,0,0,0
1564665764234.38,88.16,0,0,0,0,0
1564665764250,98.15,0,0,0,0,0
1564665764265.63,105.57,0,0,0,0,0
1564665764281.25,110.85,0,0,0,0,0
1564665764296.88,114.32,0,0,0,0,0
1564665764312.5,116.17,0,0,0,0,0
1564665764328.13,116.48,0,0,0,0,0
1564665764343.75,115.24,0,0,0,0,0
1564665764359.38,112.35,0,0,0,0,0
1564665764375,107.67,0,0,0,0,0
1564665764390.63,101.14,0,0,0,0,0
1564665764406.25,92.85,0,0,0,0,0
1564665764421.88,83.15,0,0,0,0,0
1564665764437.5,72.62,0,0,0,0,0
1564665764453.13,61.94,0,0,0,0,0
1564665764468.75,51.81,0,0,0,0,0
1564665764484.38,42.66,0,0,0,0,0
1564665764500,34.67,0,0,0,0,0
1564665764515.63,27.7,0,0,0,0,0
1564665764531.25,21.41,0,0,0,0,0
1564665764546.88,15.43,0,0,0,0,0
1564665764562.5,9.42,0,0,0,0,0
1564665764578.13,3.25,0,0,0,0,0
1564665764593.75,-3.14,0,0,0,0,0
1564665764609.38,-9.82,0,0,0,0,0
1564665764625,-16.83,0,0,0,0,0
1564665764640.63,-24.35,0,0,0,0,0
1564665764656.25,-32.42,0,0,0,0,0
1564665764671.88,-41.05,0,0,0,0,0
1564665764687.5,-49.99,0,0,0,0,0
1564665764703.13,-58.89,0,0,0,0,0
1564665764718.75,-67.34,0,0,0,0,0
1564665764734.38,-75.01,0,0,0,0,0
1564665764750,-81.67,0,0,0,0,0
1564665764765.63,-87.35,0,0,0,0,0
1564665764781.25,-92.22,0,0,0,0,0
1564665764796.88,-96.73,0,0,0,0,0
1564665764812.5,-101.47,0,0,0,0,0
1564665764828.13,-106.95,0,0,0,0,0
1564665764843.75,-113.41,0,0,0,0,0
1564665764859.38,-120.42,0,0,0,0,0
1564665764875,-126.76,0,0,0,0,0
1564665764890.63,-130.54,0,0,0,0,0
1564665764906.25,-129.73,0,0,0,0,0
1564665764921.88,-122.84,0,0,0,0,0
1564665764937.5,-109.42,0,0,0,0,0
1564665764953.13,-90.42,0,0,0,0,0
1564665764968.75,-67.95,0,0,0,0,0
1564665764984.38,-44.97,0,0,0,0,0
1564665765000,-24.78,0,0,0,0,0
1564665765015.63,-10.39,0,0,0,0,0
1564665765031.25,-3.92,0,0,0,0,0
1564665765046.88,-5.84,0,0,0,0,0
1564665765062.5,-14.63,0,0,0,0,0
1564665765078.13,-26.82,0,0,0,0,0
1564665765093.75,-37.64,0,0,0,0,0
1564665765109.38,-42.51,0,0,0,0,0
1564665765125,-38.44,0,0,0,0,0
1564665765140.63,-25.21,0,0,0,0,0
1564665765156.25,-5.43,0,0,0,0,0
1564665765171.88,16.45,0,0,0,0,0
1564665765187.5,35.75,0,0,0,0,0
1564665765203.13,49.1,0,0,0,0,0
1564665765218.75,55.24,0,0,0,0,0
1564665765234.38,54.93,0,0,0,0,0
1564665765250,50.27,0,0,0,0,0
1564665765265.63,43.88,0,0,0,0,0
1564665765281.25,38.27,0,0,0,0,0
1564665765296.88,35.43,0,0,0,0,0
1564665765312.5,36.46,0,0,0,0,0
1564665765328.13,41.31,0,0,0,0,0
1564665765343.75,48.58,0,0,0,0,0
1564665765359.38,55.7,0,0,0,0,0
1564665765375,59.62,0,0,0,0,0
1564665765390.63,57.9,0,0,0,0,0
1564665765406.25,49.71,0,0,0,0,0
1564665765421.88,36.24,0,0,0,0,0
1564665765437.5,20.15,0,0,0,0,0
1564665765453.13,4.4,0,0,0,0,0
1564665765468.75,-9.03,0,0,0,0,0
1564665765484.38,-19.72,0,0,0,0,0
1564665765500,-28.64,0,0,0,0,0
1564665765515.63,-37.28,0,0,0,0,0
1564665765531.25,-46.78,0,0,0,0,0
1564665765546.88,-57.34,0,0,0,0,0
1564665765562.5,-68.44,0,0,0,0,0
1564665765578.13,-79.16,0,0,0,0,0
1564665765593.75,-88.76,0,0,0,0,0
1564665765609.38,-97.03,0,0,0,0,0
1564665765625,-104.07,0,0,0,0,0
1564665765640.63,-110.09,0,0,0,0,0
1564665765656.25,-114.96,0,0,0,0,0
1564665765671.88,-117.99,0,0,0,0,0
1564665765687.5,-117.92,0,0,0,0,0
1564665765703.13,-113.34,0,0,0,0,0
1564665765718.75,-103.29,0,0,0,0,0
1564665765734.38,-87.91,0,0,0,0,0
1564665765750,-68.56,0,0,0,0,0
1564665765765.63,-47.42,0,0,0,0,0
1564665765781.25,-26.58,0,0,0,0,0
1564665765796.88,-7.23,0,0,0,0,0
1564665765812.5,10.6,0,0,0,0,0
1564665765828.13,27.53,0,0,0,0,0
1564665765843.75,43.85,0,0,0,0,0
1564665765859.38,58.89,0,0,0,0,0
1564665765875,70.87,0,0,0,0,0
1564665765890.63,77.82,0,0,0,0,0
1564665765906.25,78.57,0,0,0,0,0
1564665765921.88,73.45,0,0,0,0,0
1564665765937.5,64.06,0,0,0,0,0
1564665765953.13,52.43,0,0,0,0,0
1564665765968.75,40.03,0,0,0,0,0
1564665765984.38,27.15,0,0,0,0,0
1564665766000,13.11,0,0,0,0,0
1564665766015.63,-3.2,0,0,0,0,0
1564665766031.25,-22.65,0,0,0,0,0
1564665766046.88,-45.45,0,0,0,0,0
1564665766062.5,-71.06,0,0,0,0,0
1564665766078.13,-98.12,0,0,0,0,0
1564665766093.75,-124.69,0,0,0,0,0
1564665766109.38,-148.56,0,0,0,0,0
1564665766125,-167.77,0,0,0,0,0
1564665766140.63,-181.19,0,0,0,0,0
1564665766156.25,-188.93,0,0,0,0,0
1564665766171.88,-192.35,0,0,0,0,0
1564665766187.5,-193.63,0,0,0,0,0
1564665766203.13,-194.93,0,0,0,0,0
1564665766218.75,-197.7,0,0,0,0,0
1564665766234.38,-202.1,0,0,0,0,0
1564665766250,-207.06,0,0,0,0,0
1564665766265.63,-210.66,0,0,0,0,0
1564665766281.25,-210.67,0,0,0,0,0
1564665766296.88,-205.33,0,0,0,0,0
1564665766312.5,-193.75,0,0,0,0,0
1564665766328.13,-176.3,0,0,0,0,0
1564665766343.75,-154.43,0,0,0,0,0
1564665766359.38,-130.18,0,0,0,0,0
1564665766375,-105.58,0,0,0,0,0
1564665766390.63,-81.97,0,0,0,0,0
1564665766406.25,-59.78,0,0,0,0,0
1564665766421.88,-38.75,0,0,0,0,0
1564665766437.5,-18.44,0,0,0,0,0
1564665766453.13,1.24,0,0,0,0,0
1564665766468.75,19.81,0,0,0,0,0
1564665766484.38,36.4,0,0,0,0,0
1564665766500,50.26,0,0,0,0,0
1564665766515.63,61.12,0,0,0,0,0
1564665766531.25,69.34,0,0,0,0,0
1564665766546.88,75.69,0,0,0,0,0
1564665766562.5,80.96,0,0,0,0,0
1564665766578.13,85.65,0,0,0,0,0
1564665766593.75,89.89,0,0,0,0,0
1564665766609.38,93.59,0,0,0,0,0
1564665766625,96.58,0,0,0,0,0
1564665766640.63,98.91,0,0,0,0,0
1564665766656.25,100.71,0,0,0,0,0
1564665766671.88,102.19,0,0,0,0,0
1564665766687.5,103.44,0,0,0,0,0
1564665766703.13,104.41,0,0,0,0,0
1564665766718.75,104.9,0,0,0,0,0
1564665766734.38,104.59,0,0,0,0,0
1564665766750,103.08,0,0,0,0,0
1564665766765.63,99.78,0,0,0,0,0
1564665766781.25,94.01,0,0,0,0,0
1564665766796.88,85.03,0,0,0,0,0
1564665766812.5,72.29,0,0,0,0,0
1564665766828.13,55.67,0,0,0,0,0
1564665766843.75,35.54,0,0,0,0,0
1564665766859.38,12.76,0,0,0,0,0
1564665766875,-11.38,0,0,0,0,0
1564665766890.63,-35.32,0,0,0,0,0
1564665766906.25,-57.29,0,0,0,0,0
1564665766921.88,-75.55,0,0,0,0,0
1564665766937.5,-88.8,0,0,0,0,0
1564665766953.13,-96.72,0,0,0,0,0
1564665766968.75,-100.23,0,0,0,0,0
1564665766984.38,-101.19,0,0,0,0,0
1564665767000,-101.32,0,0,0,0,0
1564665767015.63,-101.03,0,0,0,0,0
1564665767031.25,-98.67,0,0,0,0,0
1564665767046.88,-91,0,0,0,0,0
1564665767062.5,-74.78,0,0,0,0,0
1564665767078.13,-48.69,0,0,0,0,0
1564665767093.75,-14.48,0,0,0,0,0
1564665767109.38,23.32,0,0,0,0,0
1564665767125,59.17,0,0,0,0,0
1564665767140.63,88.66,0,0,0,0,0
1564665767156.25,109.96,0,0,0,0,0
1564665767171.88,123.93,0,0,0,0,0
1564665767187.5,133.06,0,0,0,0,0
1564665767203.13,140.06,0,0,0,0,0
1564665767218.75,146.88,0,0,0,0,0
1564665767234.38,154.54,0,0,0,0,0
1564665767250,163.45,0,0,0,0,0
1564665767265.63,173.71,0,0,0,0,0
1564665767281.25,185.16,0,0,0,0,0
1564665767296.88,197.02,0,0,0,0,0
1564665767312.5,207.56,0,0,0,0,0
1564665767328.13,214.5,0,0,0,0,0
1564665767343.75,215.69,0,0,0,0,0
1564665767359.38,210.23,0,0,0,0,0
1564665767375,199.11,0,0,0,0,0
1564665767390.63,184.86,0,0,0,0,0
1564665767406.25,170.58,0,0,0,0,0
1564665767421.88,158.42,0,0,0,0,0
1564665767437.5,148.71,0,0,0,0,0
1564665767453.13,139.95,0,0,0,0,0
1564665767468.75,129.86,0,0,0,0,0
1564665767484.38,116.68,0,0,0,0,0
1564665767500,100.17,0,0,0,0,0
1564665767515.63,81.55,0,0,0,0,0
1564665767531.25,62.68,0,0,0,0,0
1564665767546.88,44.9,0,0,0,0,0
1564665767562.5,28.33,0,0,0,0,0
1564665767578.13,11.95,0,0,0,0,0
1564665767593.75,-5.73,0,0,0,0,0
1564665767609.38,-25.68,0,0,0,0,0
1564665767625,-47.78,0,0,0,0,0
1564665767640.63,-70.64,0,0,0,0,0
1564665767656.25,-92.04,0,0,0,0,0
1564665767671.88,-109.55,0,0,0,0,0
1564665767687.5,-121.11,0,0,0,0,0
1564665767703.13,-125.6,0,0,0,0,0
1564665767718.75,-122.99,0,0,0,0,0
1564665767734.38,-114.3,0,0,0,0,0
1564665767750,-101.22,0,0,0,0,0
1564665767765.63,-85.62,0,0,0,0,0
1564665767781.25,-69.25,0,0,0,0,0
1564665767796.88,-53.42,0,0,0,0,0
1564665767812.5,-39.01,0,0,0,0,0
1564665767828.13,-26.52,0,0,0,0,0
1564665767843.75,-16.26,0,0,0,0,0
1564665767859.38,-8.22,0,0,0,0,0
1564665767875,-2.18,0,0,0,0,0
1564665767890.63,2.35,0,0,0,0,0
1564665767906.25,5.95,0,0,0,0,0
1564665767921.88,9.15,0,0,0,0,0
1564665767937.5,12.25,0,0,0,0,0
1564665767953.13,15.22,0,0,0,0,0
1564665767968.75,17.81,0,0,0,0,0
1564665767984.38,19.64,0,0,0,0,0
1564665768000,20.47,0,0,0,0,0
1564665768015.63,20.24,0,0,0,0,0
1564665768031.25,19.13,0,0,0,0,0
1564665768046.88,17.49,0,0,0,0,0
1564665768062.5,15.69,0,0,0,0,0
1564665768078.13,14.03,0,0,0,0,0
1564665768093.75,12.58,0,0,0,0,0
1564665768109.38,11.2,0,0,0,0,0
1564665768125,9.47,0,0,0,0,0
1564665768140.63,6.85,0,0,0,0,0
1564665768156.25,2.76,0,0,0,0,0
1564665768171.88,-3.15,0,0,0,0,0
1564665768187.5,-10.81,0,0,0,0,0
1564665768203.13,-19.64,0,0,0,0,0
1564665768218.75,-28.59,0,0,0,0,0
1564665768234.38,-36.56,0,0,0,0,0
1564665768250,-42.77,0,0,0,0,0
1564665768265.63,-47.1,0,0,0,0,0
1564665768281.25,-50.17,0,0,0,0,0
1564665768296.88,-53.14,0,0,0,0,0
1564665768312.5,-57.31,0,0,0,0,0
1564665768328.13,-63.75,0,0,0,0,0
1564665768343.75,-72.91,0,0,0,0,0
1564665768359.38,-84.37,0,0,0,0,0
1564665768375,-96.82,0,0,0,0,0
1564665768390.63,-108.14,0,0,0,0,0
1564665768406.25,-115.84,0,0,0,0,0
1564665768421.88,-117.71,0,0,0,0,0
1564665768437.5,-112.38,0,0,0,0,0
1564665768453.13,-99.79,0,0,0,0,0
1564665768468.75,-81.28,0,0,0,0,0
1564665768484.38,-59.16,0,0,0,0,0
1564665768500,-36.09,0,0,0,0,0
1564665768515.63,-14.43,0,0,0,0,0
1564665768531.25,4.18,0,0,0,0,0
1564665768546.88,18.94,0,0,0,0,0
1564665768562.5,29.77,0,0,0,0,0
1564665768578.13,37.06,0,0,0,0,0
1564665768593.75,41.51,0,0,0,0,0
1564665768609.38,43.94,0,0,0,0,0
1564665768625,45.23,0,0,0,0,0
1564665768640.63,46.15,0,0,0,0,0
1564665768656.25,47.22,0,0,0,0,0
1564665768671.88,48.64,0,0,0,0,0
1564665768687.5,50.19,0,0,0,0,0
1564665768703.13,51.34,0,0,0,0,0
1564665768718.75,51.46,0,0,0,0,0
1564665768734.38,50.1,0,0,0,0,0
1564665768750,47.19,0,0,0,0,0
1564665768765.63,43.18,0,0,0,0,0
1564665768781.25,38.94,0,0,0,0,0
1564665768796.88,35.5,0,0,0,0,0
1564665768812.5,33.73,0,0,0,0,0
1564665768828.13,33.97,0,0,0,0,0
1564665768843.75,35.85,0,0,0,0,0
1564665768859.38,38.36,0,0,0,0,0
1564665768875,40.13,0,0,0,0,0
1564665768890.63,39.81,0,0,0,0,0
1564665768906.25,36.45,0,0,0,0,0
1564665768921.88,29.75,0,0,0,0,0
1564665768937.5,20.09,0,0,0,0,0
1564665768953.13,8.37,0,0,0,0,0
1564665768968.75,-4.23,0,0,0,0,0
1564665768984.38,-16.52,0,0,0,0,0
1564665769000,-27.54,0,0,0,0,0
1564665769015.63,-36.68,0,0,0,0,0
1564665769031.25,-43.88,0,0,0,0,0
1564665769046.88,-49.51,0,0,0,0,0
1564665769062.5,-54.22,0,0,0,0,0
1564665769078.13,-58.54,0,0,0,0,0
1564665769093.75,-62.48,0,0,0,0,0
1564665769109.38,-65.23,0,0,0,0,0
1564665769125,-65.28,0,0,0,0,0
1564665769140.63,-60.95,0,0,0,0,0
1564665769156.25,-50.96,0,0,0,0,0
1564665769171.88,-35.09,0,0,0,0,0
1564665769187.5,-14.35,0,0,0,0,0
1564665769203.13,9.25,0,0,0,0,0
1564665769218.75,33.23,0,0,0,0,0
1564665769234.38,55.26,0,0,0,0,0
1564665769250,73.65,0,0,0,0,0
1564665769265.63,87.49,0,0,0,0,0
1564665769281.25,96.53,0,0,0,0,0
1564665769296.88,101.02,0,0,0,0,0
1564665769312.5,101.48,0,0,0,0,0
1564665769328.13,98.67,0,0,0,0,0
1564665769343.75,93.47,0,0,0,0,0
1564665769359.38,86.94,0,0,0,0,0
1564665769375,80.11,0,0,0,0,0
1564665769390.63,73.82,0,0,0,0,0
1564665769406.25,68.57,0,0,0,0,0
1564665769421.88,64.41,0,0,0,0,0
1564665769437.5,61.03,0,0,0,0,0
1564665769453.13,57.97,0,0,0,0,0
1564665769468.75,54.88,0,0,0,0,0
1564665769484.38,51.65,0,0,0,0,0
1564665769500,48.44,0,0,0,0,0
1564665769515.63,45.56,0,0,0,0,0
1564665769531.25,43.24,0,0,0,0,0
1564665769546.88,41.57,0,0,0,0,0
1564665769562.5,40.31,0,0,0,0,0
1564665769578.13,38.95,0,0,0,0,0
1564665769593.75,36.82,0,0,0,0,0
1564665769609.38,33.25,0,0,0,0,0
1564665769625,27.86,0,0,0,0,0
1564665769640.63,20.66,0,0,0,0,0
1564665769656.25,12.13,0,0,0,0,0
1564665769671.88,3.07,0,0,0,0,0
1564665769687.5,-5.72,0,0,0,0,0
1564665769703.13,-13.71,0,0,0,0,0
1564665769718.75,-20.78,0,0,0,0,0
1564665769734.38,-27.32,0,0,0,0,0
1564665769750,-33.97,0,0,0,0,0
1564665769765.63,-41.45,0,0,0,0,0
1564665769781.25,-50.22,0,0,0,0,0
1564665769796.88,-60.2,0,0,0,0,0
1564665769812.5,-70.66,0,0,0,0,0
1564665769828.13,-80.11,0,0,0,0,0
1564665769843.75,-86.59,0,0,0,0,0
1564665769859.38,-88.15,0,0,0,0,0
1564665769875,-83.4,0,0,0,0,0
1564665769890.63,-72.01,0,0,0,0,0
1564665769906.25,-54.94,0,0,0,0,0
1564665769921.88,-34.13,0,0,0,0,0
1564665769937.5,-11.99,0,0,0,0,0
1564665769953.13,9.25,0,0,0,0,0
1564665769968.75,27.98,0,0,0,0,0
1564665769984.38,43.35,0,0,0,0,0
1564665770000,55.09,0,0,0,0,0
1564665770015.63,63.28,0,0,0,0,0
1564665770031.25,68.11,0,0,0,0,0
1564665770046.88,69.85,0,0,0,0,0
1564665770062.5,68.91,0,0,0,0,0
1564665770078.13,65.91,0,0,0,0,0
1564665770093.75,61.66,0,0,0,0,0
1564665770109.38,57.01,0,0,0,0,0
1564665770125,52.62,0,0,0,0,0
1564665770140.63,48.84,0,0,0,0,0
1564665770156.25,45.69,0,0,0,0,0
1564665770171.88,42.99,0,0,0,0,0
1564665770187.5,40.49,0,0,0,0,0
1564665770203.13,37.97,0,0,0,0,0
1564665770218.75,35.31,0,0,0,0,0
1564665770234.38,32.36,0,0,0,0,0
1564665770250,28.9,0,0,0,0,0
1564665770265.63,24.62,0,0,0,0,0
1564665770281.25,19.22,0,0,0,0,0
1564665770296.88,12.5,0,0,0,0,0
1564665770312.5,4.51,0,0,0,0,0
1564665770328.13,-4.37,0,0,0,0,0
1564665770343.75,-13.48,0,0,0,0,0
1564665770359.38,-22.04,0,0,0,0,0
1564665770375,-29.28,0,0,0,0,0
1564665770390.63,-34.71,0,0,0,0,0
1564665770406.25,-38.24,0,0,0,0,0
1564665770421.88,-40.23,0,0,0,0,0
1564665770437.5,-41.43,0,0,0,0,0
1564665770453.13,-42.91,0,0,0,0,0
1564665770468.75,-45.86,0,0,0,0,0
1564665770484.38,-51.37,0,0,0,0,0
1564665770500,-60.12,0,0,0,0,0
1564665770515.63,-72.08,0,0,0,0,0
1564665770531.25,-86.2,0,0,0,0,0
1564665770546.88,-100.38,0,0,0,0,0
1564665770562.5,-111.77,0,0,0,0,0
1564665770578.13,-117.41,0,0,0,0,0
1564665770593.75,-115.13,0,0,0,0,0
1564665770609.38,-104.16,0,0,0,0,0
1564665770625,-85.48,0,0,0,0,0
1564665770640.63,-61.46,0,0,0,0,0
1564665770656.25,-35.18,0,0,0,0,0
1564665770671.88,-9.58,0,0,0,0,0
1564665770687.5,13.11,0,0,0,0,0
1564665770703.13,31.62,0,0,0,0,0
1564665770718.75,45.45,0,0,0,0,0
1564665770734.38,54.56,0,0,0,0,0
1564665770750,59.13,0,0,0,0,0
1564665770765.63,59.41,0,0,0,0,0
1564665770781.25,55.91,0,0,0,0,0
1564665770796.88,49.39,0,0,0,0,0
1564665770812.5,40.92,0,0,0,0,0
1564665770828.13,31.76,0,0,0,0,0
1564665770843.75,23.11,0,0,0,0,0
1564665770859.38,15.93,0,0,0,0,0
1564665770875,10.8,0,0,0,0,0
1564665770890.63,7.9,0,0,0,0,0
1564665770906.25,7.03,0,0,0,0,0
1564665770921.88,7.68,0,0,0,0,0
1564665770937.5,9.11,0,0,0,0,0
1564665770953.13,10.45,0,0,0,0,0
1564665770968.75,10.86,0,0,0,0,0
1564665770984.38,9.69,0,0,0,0,0
1564665771000,6.65,0,0,0,0,0
1564665771015.63,1.83,0,0,0,0,0
1564665771031.25,-4.29,0,0,0,0,0
1564665771046.88,-11,0,0,0,0,0
1564665771062.5,-17.57,0,0,0,0,0
1564665771078.13,-23.44,0,0,0,0,0
1564665771093.75,-28.37,0,0,0,0,0
1564665771109.38,-32.61,0,0,0,0,0
1564665771125,-36.9,0,0,0,0,0
1564665771140.63,-42.33,0,0,0,0,0
1564665771156.25,-49.94,0,0,0,0,0
1564665771171.88,-60.22,0,0,0,0,0
1564665771187.5,-72.53,0,0,0,0,0
1564665771203.13,-85,0,0,0,0,0
1564665771218.75,-94.76,0,0,0,0,0
1564665771234.38,-98.77,0,0,0,0,0
1564665771250,-94.83,0,0,0,0,0
1564665771265.63,-82.4,0,0,0,0,0
1564665771281.25,-62.8,0,0,0,0,0
1564665771296.88,-38.77,0,0,0,0,0
1564665771312.5,-13.59,0,0,0,0,0
1564665771328.13,9.94,0,0,0,0,0
1564665771343.75,30.03,0,0,0,0,0
1564665771359.38,45.99,0,0,0,0,0
1564665771375,57.87,0,0,0,0,0
1564665771390.63,66.02,0,0,0,0,0
1564665771406.25,70.76,0,0,0,0,0
1564665771421.88,72.35,0,0,0,0,0
1564665771437.5,71.21,0,0,0,0,0
1564665771453.13,68.01,0,0,0,0,0
1564665771468.75,63.74,0,0,0,0,0
1564665771484.38,59.39,0,0,0,0,0
1564665771500,55.75,0,0,0,0,0
1564665771515.63,53.18,0,0,0,0,0
1564665771531.25,51.61,0,0,0,0,0
1564665771546.88,50.76,0,0,0,0,0
1564665771562.5,50.34,0,0,0,0,0
1564665771578.13,50.12,0,0,0,0,0
1564665771593.75,49.96,0,0,0,0,0
1564665771609.38,49.6,0,0,0,0,0
1564665771625,48.57,0,0,0,0,0
1564665771640.63,46.22,0,0,0,0,0
1564665771656.25,41.9,0,0,0,0,0
1564665771671.88,35.23,0,0,0,0,0
1564665771687.5,26.29,0,0,0,0,0
1564665771703.13,15.62,0,0,0,0,0
1564665771718.75,4.06,0,0,0,0,0
1564665771734.38,-7.58,0,0,0,0,0
1564665771750,-18.72,0,0,0,0,0
1564665771765.63,-29.32,0,0,0,0,0
1564665771781.25,-39.84,0,0,0,0,0
1564665771796.88,-51.14,0,0,0,0,0
1564665771812.5,-64.17,0,0,0,0,0
1564665771828.13,-79.5,0,0,0,0,0
1564665771843.75,-96.71,0,0,0,0,0
1564665771859.38,-114.07,0,0,0,0,0
1564665771875,-128.7,0,0,0,0,0
1564665771890.63,-137.15,0,0,0,0,0
1564665771906.25,-136.57,0,0,0,0,0
1564665771921.88,-125.69,0,0,0,0,0
1564665771937.5,-105.41,0,0,0,0,0
1564665771953.13,-78.56,0,0,0,0,0
1564665771968.75,-49.02,0,0,0,0,0
1564665771984.38,-20.54,0,0,0,0,0
1564665772000,4.27,0,0,0,0,0
1564665772015.63,24.26,0,0,0,0,0
1564665772031.25,39.57,0,0,0,0,0
1564665772046.88,50.98,0,0,0,0,0
1564665772062.5,59.44,0,0,0,0,0
1564665772078.13,65.63,0,0,0,0,0
1564665772093.75,70.02,0,0,0,0,0
1564665772109.38,72.94,0,0,0,0,0
1564665772125,74.74,0,0,0,0,0
1564665772140.63,75.76,0,0,0,0,0
1564665772156.25,76.26,0,0,0,0,0
1564665772171.88,76.29,0,0,0,0,0
1564665772187.5,75.73,0,0,0,0,0
1564665772203.13,74.26,0,0,0,0,0
1564665772218.75,71.65,0,0,0,0,0
1564665772234.38,67.9,0,0,0,0,0
1564665772250,63.42,0,0,0,0,0
1564665772265.63,58.94,0,0,0,0,0
1564665772281.25,55.4,0,0,0,0,0
1564665772296.88,53.57,0,0,0,0,0
1564665772312.5,53.78,0,0,0,0,0
1564665772328.13,55.72,0,0,0,0,0
1564665772343.75,58.4,0,0,0,0,0
1564665772359.38,60.52,0,0,0,0,0
1564665772375,60.82,0,0,0,0,0
1564665772390.63,58.54,0,0,0,0,0
1564665772406.25,53.63,0,0,0,0,0
1564665772421.88,46.68,0,0,0,0,0
1564665772437.5,38.58,0,0,0,0,0
1564665772453.13,30.1,0,0,0,0,0
1564665772468.75,21.56,0,0,0,0,0
1564665772484.38,12.79,0,0,0,0,0
1564665772500,3.23,0,0,0,0,0
1564665772515.63,-7.79,0,0,0,0,0
1564665772531.25,-20.83,0,0,0,0,0
1564665772546.88,-36.13,0,0,0,0,0
1564665772562.5,-53.49,0,0,0,0,0
1564665772578.13,-72.11,0,0,0,0,0
1564665772593.75,-90.45,0,0,0,0,0
1564665772609.38,-106.22,0,0,0,0,0
1564665772625,-116.81,0,0,0,0,0
1564665772640.63,-119.82,0,0,0,0,0
1564665772656.25,-113.95,0,0,0,0,0
1564665772671.88,-99.52,0,0,0,0,0
1564665772687.5,-78.53,0,0,0,0,0
1564665772703.13,-54.12,0,0,0,0,0
1564665772718.75,-29.59,0,0,0,0,0
1564665772734.38,-7.43,0,0,0,0,0
1564665772750,11.17,0,0,0,0,0
1564665772765.63,26.2,0,0,0,0,0
1564665772781.25,38.29,0,0,0,0,0
1564665772796.88,48.05,0,0,0,0,0
1564665772812.5,55.67,0,0,0,0,0
1564665772828.13,60.91,0,0,0,0,0
1564665772843.75,63.46,0,0,0,0,0
1564665772859.38,63.32,0,0,0,0,0
1564665772875,61,0,0,0,0,0
1564665772890.63,57.38,0,0,0,0,0
1564665772906.25,53.41,0,0,0,0,0
1564665772921.88,49.77,0,0,0,0,0
1564665772937.5,46.71,0,0,0,0,0
1564665772953.13,44.1,0,0,0,0,0
1564665772968.75,41.64,0,0,0,0,0
1564665772984.38,39.07,0,0,0,0,0
1564665773000,36.35,0,0,0,0,0
1564665773015.63,33.54,0,0,0,0,0
1564665773031.25,30.73,0,0,0,0,0
1564665773046.88,27.87,0,0,0,0,0
1564665773062.5,24.74,0,0,0,0,0
1564665773078.13,21.04,0,0,0,0,0
1564665773093.75,16.57,0,0,0,0,0
1564665773109.38,11.42,0,0,0,0,0
1564665773125,5.92,0,0,0,0,0
1564665773140.63,0.55,0,0,0,0,0
1564665773156.25,-4.34,0,0,0,0,0
1564665773171.88,-8.81,0,0,0,0,0
1564665773187.5,-13.4,0,0,0,0,0
1564665773203.13,-18.98,0,0,0,0,0
1564665773218.75,-26.31,0,0,0,0,0
1564665773234.38,-35.77,0,0,0,0,0
1564665773250,-47.13,0,0,0,0,0
1564665773265.63,-59.62,0,0,0,0,0
1564665773281.25,-72.2,0,0,0,0,0
1564665773296.88,-83.73,0,0,0,0,0
1564665773312.5,-93.11,0,0,0,0,0
1564665773328.13,-99.19,0,0,0,0,0
1564665773343.75,-100.72,0,0,0,0,0
1564665773359.38,-96.26,0,0,0,0,0
1564665773375,-84.37,0,0,0,0,0
1564665773390.63,-63.83,0,0,0,0,0
1564665773406.25,-33.8,0,0,0,0,0
1564665773421.88,6.16,0,0,0,0,0
1564665773437.5,56.14,0,0,0,0,0
1564665773453.13,115.65,0,0,0,0,0
1564665773468.75,183.07,0,0,0,0,0
1564665773484.38,254.92,0,0,0,0,0
1564665773500,325.62,0,0,0,0,0
1564665773515.63,388.09,0,0,0,0,0
1564665773531.25,435.32,0,0,0,0,0
1564665773546.88,462.42,0,0,0,0,0
1564665773562.5,468.03,0,0,0,0,0
1564665773578.13,454.79,0,0,0,0,0
1564665773593.75,428.17,0,0,0,0,0
1564665773609.38,394.73,0,0,0,0,0
1564665773625,360.26,0,0,0,0,0
1564665773640.63,328.72,0,0,0,0,0
1564665773656.25,302.04,0,0,0,0,0
1564665773671.88,280.69,0,0,0,0,0
1564665773687.5,264.38,0,0,0,0,0
1564665773703.13,252.4,0,0,0,0,0
1564665773718.75,243.78,0,0,0,0,0
1564665773734.38,237.23,0,0,0,0,0
1564665773750,231.06,0,0,0,0,0
1564665773765.63,223.37,0,0,0,0,0
1564665773781.25,212.46,0,0,0,0,0
1564665773796.88,197.17,0,0,0,0,0
1564665773812.5,177.36,0,0,0,0,0
1564665773828.13,153.97,0,0,0,0,0
1564665773843.75,128.74,0,0,0,0,0
1564665773859.38,103.56,0,0,0,0,0
1564665773875,79.78,0,0,0,0,0
1564665773890.63,57.78,0,0,0,0,0
1564665773906.25,36.94,0,0,0,0,0
1564665773921.88,16.15,0,0,0,0,0
1564665773937.5,-5.56,0,0,0,0,0
1564665773953.13,-28.57,0,0,0,0,0
1564665773968.75,-52.65,0,0,0,0,0
1564665773984.38,-77.34,0,0,0,0,0
1564665774000,-102.18,0,0,0,0,0
1564665774015.63,-126.94,0,0,0,0,0
1564665774031.25,-151.46,0,0,0,0,0
1564665774046.88,-175.14,0,0,0,0,0
1564665774062.5,-196.79,0,0,0,0,0
1564665774078.13,-214.62,0,0,0,0,0
1564665774093.75,-226.87,0,0,0,0,0
1564665774109.38,-232.46,0,0,0,0,0
1564665774125,-231.62,0,0,0,0,0
1564665774140.63,-225.93,0,0,0,0,0
1564665774156.25,-217.67,0,0,0,0,0
1564665774171.88,-208.99,0,0,0,0,0
1564665774187.5,-201.14,0,0,0,0,0
1564665774203.13,-194.36,0,0,0,0,0
1564665774218.75,-188.42,0,0,0,0,0
1564665774234.38,-183.45,0,0,0,0,0
1564665774250,-180.22,0,0,0,0,0
1564665774265.63,-179.69,0,0,0,0,0
1564665774281.25,-181.91,0,0,0,0,0
1564665774296.88,-185.19,0,0,0,0,0
1564665774312.5,-186.44,0,0,0,0,0
1564665774328.13,-182.39,0,0,0,0,0
1564665774343.75,-171.54,0,0,0,0,0
1564665774359.38,-155.08,0,0,0,0,0
1564665774375,-136.63,0,0,0,0,0
1564665774390.63,-120.39,0,0,0,0,0
1564665774406.25,-109.27,0,0,0,0,0
1564665774421.88,-103.84,0,0,0,0,0
1564665774437.5,-102.76,0,0,0,0,0
1564665774453.13,-104.24,0,0,0,0,0
1564665774468.75,-107.42,0,0,0,0,0
1564665774484.38,-112.82,0,0,0,0,0
1564665774500,-121.61,0,0,0,0,0
1564665774515.63,-134.31,0,0,0,0,0
1564665774531.25,-150.09,0,0,0,0,0
1564665774546.88,-166.91,0,0,0,0,0
1564665774562.5,-182.53,0,0,0,0,0
1564665774578.13,-195.58,0,0,0,0,0
1564665774593.75,-206.11,0,0,0,0,0
1564665774609.38,-215.18,0,0,0,0,0
1564665774625,-223.92,0,0,0,0,0
1564665774640.63,-232.63,0,0,0,0,0
1564665774656.25,-240.29,0,0,0,0,0
1564665774671.88,-244.91,0,0,0,0,0
1564665774687.5,-244.7,0,0,0,0,0
1564665774703.13,-239.06,0,0,0,0,0
1564665774718.75,-229.32,0,0,0,0,0
1564665774734.38,-218.48,0,0,0,0,0
1564665774750,-210.1,0,0,0,0,0
1564665774765.63,-206.98,0,0,0,0,0
1564665774781.25,-210.15,0,0,0,0,0
1564665774796.88,-218.71,0,0,0,0,0
1564665774812.5,-230.5,0,0,0,0,0
1564665774828.13,-243.07,0,0,0,0,0
1564665774843.75,-254.43,0,0,0,0,0
1564665774859.38,-263.05,0,0,0,0,0
1564665774875,-267.59,0,0,0,0,0
1564665774890.63,-266.52,0,0,0,0,0
1564665774906.25,-258.25,0,0,0,0,0
1564665774921.88,-241.82,0,0,0,0,0
1564665774937.5,-217.71,0,0,0,0,0
1564665774953.13,-188.03,0,0,0,0,0
1564665774968.75,-156.07,0,0,0,0,0
1564665774984.38,-125.1,0,0,0,0,0
1564665775000,-97.1,0,0,0,0,0
1564665775015.63,-72.3,0,0,0,0,0
1564665775031.25,-49.4,0,0,0,0,0
1564665775046.88,-26.75,0,0,0,0,0
1564665775062.5,-3.41,0,0,0,0,0
1564665775078.13,20.19,0,0,0,0,0
1564665775093.75,42.47,0,0,0,0,0
1564665775109.38,61.51,0,0,0,0,0
1564665775125,76.04,0,0,0,0,0
1564665775140.63,86.11,0,0,0,0,0
1564665775156.25,93.07,0,0,0,0,0
1564665775171.88,98.98,0,0,0,0,0
1564665775187.5,105.73,0,0,0,0,0
1564665775203.13,114.14,0,0,0,0,0
1564665775218.75,123.6,0,0,0,0,0
1564665775234.38,132.17,0,0,0,0,0
1564665775250,137.28,0,0,0,0,0
1564665775265.63,136.57,0,0,0,0,0
1564665775281.25,128.77,0,0,0,0,0
1564665775296.88,113.96,0,0,0,0,0
1564665775312.5,93.57,0,0,0,0,0
1564665775328.13,69.78,0,0,0,0,0
1564665775343.75,44.81,0,0,0,0,0
1564665775359.38,20.28,0,0,0,0,0
1564665775375,-3.15,0,0,0,0,0
1564665775390.63,-25.78,0,0,0,0,0
1564665775406.25,-48.48,0,0,0,0,0
1564665775421.88,-71.98,0,0,0,0,0
1564665775437.5,-96.28,0,0,0,0,0
1564665775453.13,-120.19,0,0,0,0,0
1564665775468.75,-141.44,0,0,0,0,0
1564665775484.38,-157.19,0,0,0,0,0
1564665775500,-164.92,0,0,0,0,0
1564665775515.63,-163.09,0,0,0,0,0
1564665775531.25,-151.51,0,0,0,0,0
1564665775546.88,-131.03,0,0,0,0,0
1564665775562.5,-102.94,0,0,0,0,0
1564665775578.13,-68.46,0,0,0,0,0
1564665775593.75,-28.75,0,0,0,0,0
1564665775609.38,14.63,0,0,0,0,0
1564665775625,59.02,0,0,0,0,0
1564665775640.63,100.6,0,0,0,0,0
1564665775656.25,134.97,0,0,0,0,0
1564665775671.88,158.47,0,0,0,0,0
1564665775687.5,169.54,0,0,0,0,0
1564665775703.13,169.38,0,0,0,0,0
1564665775718.75,161.51,0,0,0,0,0
1564665775734.38,150.41,0,0,0,0,0
1564665775750,140.02,0,0,0,0,0
1564665775765.63,132.6,0,0,0,0,0
1564665775781.25,128.58,0,0,0,0,0
1564665775796.88,127.24,0,0,0,0,0
1564665775812.5,127.61,0,0,0,0,0
1564665775828.13,129.28,0,0,0,0,0
1564665775843.75,132.3,0,0,0,0,0
1564665775859.38,136.84,0,0,0,0,0
1564665775875,142.59,0,0,0,0,0
1564665775890.63,148.45,0,0,0,0,0
1564665775906.25,152.76,0,0,0,0,0
1564665775921.88,153.89,0,0,0,0,0
1564665775937.5,150.94,0,0,0,0,0
1564665775953.13,144.1,0,0,0,0,0
1564665775968.75,134.45,0,0,0,0,0
1564665775984.38,123.57,0,0,0,0,0
1564665776000,112.9,0,0,0,0,0
1564665776015.63,103.36,0,0,0,0,0
1564665776031.25,95.26,0,0,0,0,0
1564665776046.88,88.43,0,0,0,0,0
1564665776062.5,82.36,0,0,0,0,0
1564665776078.13,76.2,0,0,0,0,0
1564665776093.75,68.76,0,0,0,0,0
1564665776109.38,58.84,0,0,0,0,0
1564665776125,45.66,0,0,0,0,0
1564665776140.63,29.51,0,0,0,0,0
1564665776156.25,12.1,0,0,0,0,0
1564665776171.88,-3.67,0,0,0,0,0
1564665776187.5,-14.5,0,0,0,0,0
1564665776203.13,-17.68,0,0,0,0,0
1564665776218.75,-11.82,0,0,0,0,0
1564665776234.38,2.82,0,0,0,0,0
1564665776250,24.39,0,0,0,0,0
1564665776265.63,49.71,0,0,0,0,0
1564665776281.25,74.65,0,0,0,0,0
1564665776296.88,94.76,0,0,0,0,0
1564665776312.5,106.09,0,0,0,0,0
1564665776328.13,106.44,0,0,0,0,0
1564665776343.75,96.15,0,0,0,0,0
1564665776359.38,78.32,0,0,0,0,0
1564665776375,57.94,0,0,0,0,0
1564665776390.63,40.33,0,0,0,0,0
1564665776406.25,29.36,0,0,0,0,0
1564665776421.88,26.47,0,0,0,0,0
1564665776437.5,30.72,0,0,0,0,0
1564665776453.13,39.76,0,0,0,0,0
1564665776468.75,50.96,0,0,0,0,0
1564665776484.38,62.19,0,0,0,0,0
1564665776500,72.06,0,0,0,0,0
1564665776515.63,79.59,0,0,0,0,0
1564665776531.25,84.02,0,0,0,0,0
1564665776546.88,84.8,0,0,0,0,0
1564665776562.5,81.88,0,0,0,0,0
1564665776578.13,76.04,0,0,0,0,0
1564665776593.75,68.67,0,0,0,0,0
1564665776609.38,61.43,0,0,0,0,0
1564665776625,55.56,0,0,0,0,0
1564665776640.63,51.34,0,0,0,0,0
1564665776656.25,48.18,0,0,0,0,0
1564665776671.88,44.88,0,0,0,0,0
1564665776687.5,40.28,0,0,0,0,0
1564665776703.13,33.69,0,0,0,0,0
1564665776718.75,25.11,0,0,0,0,0
1564665776734.38,15.13,0,0,0,0,0
1564665776750,4.69,0,0,0,0,0
1564665776765.63,-5.27,0,0,0,0,0
1564665776781.25,-14.09,0,0,0,0,0
1564665776796.88,-21.53,0,0,0,0,0
1564665776812.5,-27.95,0,0,0,0,0
1564665776828.13,-34.11,0,0,0,0,0
1564665776843.75,-40.82,0,0,0,0,0
1564665776859.38,-48.45,0,0,0,0,0
1564665776875,-56.63,0,0,0,0,0
1564665776890.63,-64.22,0,0,0,0,0
1564665776906.25,-69.64,0,0,0,0,0
1564665776921.88,-71.48,0,0,0,0,0
1564665776937.5,-68.91,0,0,0,0,0
1564665776953.13,-61.96,0,0,0,0,0
1564665776968.75,-51.26,0,0,0,0,0
1564665776984.38,-37.83,0,0,0,0,0
1564665777000,-22.78,0,0,0,0,0
1564665777015.63,-7.11,0,0,0,0,0
1564665777031.25,8.24,0,0,0,0,0
1564665777046.88,22.35,0,0,0,0,0
1564665777062.5,34.41,0,0,0,0,0
1564665777078.13,43.79,0,0,0,0,0
1564665777093.75,50.12,0,0,0,0,0
1564665777109.38,53.45,0,0,0,0,0
1564665777125,54.21,0,0,0,0,0
1564665777140.63,53.09,0,0,0,0,0
1564665777156.25,50.85,0,0,0,0,0
1564665777171.88,47.96,0,0,0,0,0
1564665777187.5,44.5,0,0,0,0,0
1564665777203.13,40.06,0,0,0,0,0
1564665777218.75,34.1,0,0,0,0,0
1564665777234.38,26.4,0,0,0,0,0
1564665777250,17.46,0,0,0,0,0
1564665777265.63,8.54,0,0,0,0,0
1564665777281.25,1.27,0,0,0,0,0
1564665777296.88,-3.01,0,0,0,0,0
1564665777312.5,-3.98,0,0,0,0,0
1564665777328.13,-2.39,0,0,0,0,0
1564665777343.75,0.1,0,0,0,0,0
1564665777359.38,1.72,0,0,0,0,0
1564665777375,1.26,0,0,0,0,0
1564665777390.63,-1.67,0,0,0,0,0
1564665777406.25,-6.66,0,0,0,0,0
1564665777421.88,-12.98,0,0,0,0,0
1564665777437.5,-19.83,0,0,0,0,0
1564665777453.13,-26.76,0,0,0,0,0
1564665777468.75,-33.5,0,0,0,0,0
1564665777484.38,-40.03,0,0,0,0,0
1564665777500,-46.49,0,0,0,0,0
1564665777515.63,-53.17,0,0,0,0,0
1564665777531.25,-60.58,0,0,0,0,0
1564665777546.88,-69.35,0,0,0,0,0
1564665777562.5,-79.92,0,0,0,0,0
1564665777578.13,-92.27,0,0,0,0,0
1564665777593.75,-105.54,0,0,0,0,0
1564665777609.38,-118,0,0,0,0,0
1564665777625,-127.4,0,0,0,0,0
1564665777640.63,-131.6,0,0,0,0,0
1564665777656.25,-129.26,0,0,0,0,0
1564665777671.88,-120.31,0,0,0,0,0
1564665777687.5,-105.97,0,0,0,0,0
1564665777703.13,-88.27,0,0,0,0,0
1564665777718.75,-69.34,0,0,0,0,0
1564665777734.38,-50.85,0,0,0,0,0
1564665777750,-33.66,0,0,0,0,0
1564665777765.63,-18.09,0,0,0,0,0
1564665777781.25,-4.31,0,0,0,0,0
1564665777796.88,7.34,0,0,0,0,0
1564665777812.5,16.24,0,0,0,0,0
1564665777828.13,21.82,0,0,0,0,0
1564665777843.75,23.95,0,0,0,0,0
1564665777859.38,23.2,0,0,0,0,0
1564665777875,20.8,0,0,0,0,0
1564665777890.63,18.22,0,0,0,0,0
1564665777906.25,16.71,0,0,0,0,0
1564665777921.88,16.83,0,0,0,0,0
1564665777937.5,18.46,0,0,0,0,0
1564665777953.13,20.93,0,0,0,0,0
1564665777968.75,23.43,0,0,0,0,0
1564665777984.38,25.39,0,0,0,0,0
1564665778000,26.6,0,0,0,0,0
1564665778015.63,27.2,0,0,0,0,0
1564665778031.25,27.4,0,0,0,0,0
1564665778046.88,27.23,0,0,0,0,0
1564665778062.5,26.45,0,0,0,0,0
1564665778078.13,24.49,0,0,0,0,0
1564665778093.75,20.74,0,0,0,0,0
1564665778109.38,14.75,0,0,0,0,0
1564665778125,6.44,0,0,0,0,0
1564665778140.63,-3.82,0,0,0,0,0
1564665778156.25,-15.27,0,0,0,0,0
1564665778171.88,-27.01,0,0,0,0,0
1564665778187.5,-38.16,0,0,0,0,0
1564665778203.13,-48.02,0,0,0,0,0
1564665778218.75,-56.16,0,0,0,0,0
1564665778234.38,-62.51,0,0,0,0,0
1564665778250,-67.42,0,0,0,0,0
1564665778265.63,-71.7,0,0,0,0,0
1564665778281.25,-76.49,0,0,0,0,0
1564665778296.88,-82.99,0,0,0,0,0
1564665778312.5,-91.94,0,0,0,0,0
1564665778328.13,-103.13,0,0,0,0,0
1564665778343.75,-115.09,0,0,0,0,0
1564665778359.38,-125.3,0,0,0,0,0
1564665778375,-130.79,0,0,0,0,0
1564665778390.63,-129.09,0,0,0,0,0
1564665778406.25,-118.93,0,0,0,0,0
1564665778421.88,-100.66,0,0,0,0,0
1564665778437.5,-76.06,0,0,0,0,0
1564665778453.13,-47.71,0,0,0,0,0
1564665778468.75,-18.26,0,0,0,0,0
1564665778484.38,10.08,0,0,0,0,0
1564665778500,35.81,0,0,0,0,0
1564665778515.63,58.11,0,0,0,0,0
1564665778531.25,76.64,0,0,0,0,0
1564665778546.88,91.39,0,0,0,0,0
1564665778562.5,102.5,0,0,0,0,0
1564665778578.13,110.27,0,0,0,0,0
1564665778593.75,115,0,0,0,0,0
1564665778609.38,117.07,0,0,0,0,0
1564665778625,116.92,0,0,0,0,0
1564665778640.63,115.07,0,0,0,0,0
1564665778656.25,112.14,0,0,0,0,0
1564665778671.88,108.76,0,0,0,0,0
1564665778687.5,105.47,0,0,0,0,0
1564665778703.13,102.54,0,0,0,0,0
1564665778718.75,99.97,0,0,0,0,0
1564665778734.38,97.52,0,0,0,0,0
1564665778750,94.86,0,0,0,0,0
1564665778765.63,91.72,0,0,0,0,0
1564665778781.25,87.94,0,0,0,0,0
1564665778796.88,83.46,0,0,0,0,0
1564665778812.5,78.17,0,0,0,0,0
1564665778828.13,71.93,0,0,0,0,0
1564665778843.75,64.52,0,0,0,0,0
1564665778859.38,55.83,0,0,0,0,0
1564665778875,46,0,0,0,0,0
1564665778890.63,35.4,0,0,0,0,0
1564665778906.25,24.66,0,0,0,0,0
1564665778921.88,14.4,0,0,0,0,0
1564665778937.5,5.11,0,0,0,0,0
1564665778953.13,-3.01,0,0,0,0,0
1564665778968.75,-10.01,0,0,0,0,0
1564665778984.38,-16.07,0,0,0,0,0
1564665779000,-21.37,0,0,0,0,0
1564665779015.63,-26.13,0,0,0,0,0
1564665779031.25,-30.64,0,0,0,0,0
1564665779046.88,-35.46,0,0,0,0,0
1564665779062.5,-41.35,0,0,0,0,0
1564665779078.13,-49.09,0,0,0,0,0
1564665779093.75,-59,0,0,0,0,0
1564665779109.38,-70.56,0,0,0,0,0
1564665779125,-82.17,0,0,0,0,0
1564665779140.63,-91.43,0,0,0,0,0
1564665779156.25,-95.78,0,0,0,0,0
1564665779171.88,-93.33,0,0,0,0,0
1564665779187.5,-83.45,0,0,0,0,0
1564665779203.13,-67,0,0,0,0,0
1564665779218.75,-45.94,0,0,0,0,0
1564665779234.38,-22.7,0,0,0,0,0
1564665779250,0.5,0,0,0,0,0
1564665779265.63,22.07,0,0,0,0,0
1564665779281.25,41.21,0,0,0,0,0
1564665779296.88,57.58,0,0,0,0,0
1564665779312.5,71.09,0,0,0,0,0
1564665779328.13,81.65,0,0,0,0,0
1564665779343.75,89.12,0,0,0,0,0
1564665779359.38,93.48,0,0,0,0,0
1564665779375,94.98,0,0,0,0,0
1564665779390.63,94.17,0,0,0,0,0
1564665779406.25,91.88,0,0,0,0,0
1564665779421.88,88.99,0,0,0,0,0
1564665779437.5,86.16,0,0,0,0,0
1564665779453.13,83.65,0,0,0,0,0
1564665779468.75,81.43,0,0,0,0,0
1564665779484.38,79.21,0,0,0,0,0
1564665779500,76.77,0,0,0,0,0
1564665779515.63,74.1,0,0,0,0,0
1564665779531.25,71.41,0,0,0,0,0
1564665779546.88,68.95,0,0,0,0,0
1564665779562.5,66.8,0,0,0,0,0
1564665779578.13,64.74,0,0,0,0,0
1564665779593.75,62.22,0,0,0,0,0
1564665779609.38,58.49,0,0,0,0,0
1564665779625,52.93,0,0,0,0,0
1564665779640.63,45.25,0,0,0,0,0
1564665779656.25,35.68,0,0,0,0,0
1564665779671.88,24.87,0,0,0,0,0
1564665779687.5,13.64,0,0,0,0,0
1564665779703.13,2.73,0,0,0,0,0
1564665779718.75,-7.46,0,0,0,0,0
1564665779734.38,-16.91,0,0,0,0,0
1564665779750,-25.88,0,0,0,0,0
1564665779765.63,-34.74,0,0,0,0,0
1564665779781.25,-43.85,0,0,0,0,0
1564665779796.88,-53.47,0,0,0,0,0
1564665779812.5,-63.8,0,0,0,0,0
1564665779828.13,-74.88,0,0,0,0,0
1564665779843.75,-86.36,0,0,0,0,0
1564665779859.38,-97.29,0,0,0,0,0
1564665779875,-105.97,0,0,0,0,0
1564665779890.63,-110.31,0,0,0,0,0
1564665779906.25,-108.41,0,0,0,0,0
1564665779921.88,-99.34,0,0,0,0,0
1564665779937.5,-83.54,0,0,0,0,0
1564665779953.13,-62.81,0,0,0,0,0
1564665779968.75,-39.69,0,0,0,0,0
1564665779984.38,-16.6,0,0,0,0,0
1564665780000,4.72,0,0,0,0,0
1564665780015.63,23.5,0,0,0,0,0
1564665780031.25,39.65,0,0,0,0,0
1564665780046.88,53.3,0,0,0,0,0
1564665780062.5,64.38,0,0,0,0,0
1564665780078.13,72.58,0,0,0,0,0
1564665780093.75,77.65,0,0,0,0,0
1564665780109.38,79.58,0,0,0,0,0
1564665780125,78.91,0,0,0,0,0
1564665780140.63,76.57,0,0,0,0,0
1564665780156.25,73.69,0,0,0,0,0
1564665780171.88,71.18,0,0,0,0,0
1564665780187.5,69.45,0,0,0,0,0
1564665780203.13,68.36,0,0,0,0,0
1564665780218.75,67.45,0,0,0,0,0
1564665780234.38,66.18,0,0,0,0,0
1564665780250,64.23,0,0,0,0,0
1564665780265.63,61.63,0,0,0,0,0
1564665780281.25,58.67,0,0,0,0,0
1564665780296.88,55.58,0,0,0,0,0
1564665780312.5,52.36,0,0,0,0,0
1564665780328.13,48.65,0,0,0,0,0
1564665780343.75,43.84,0,0,0,0,0
1564665780359.38,37.41,0,0,0,0,0
1564665780375,29.14,0,0,0,0,0
1564665780390.63,19.28,0,0,0,0,0
1564665780406.25,8.48,0,0,0,0,0
1564665780421.88,-2.45,0,0,0,0,0
1564665780437.5,-12.77,0,0,0,0,0
1564665780453.13,-22.06,0,0,0,0,0
1564665780468.75,-30.27,0,0,0,0,0
1564665780484.38,-37.72,0,0,0,0,0
1564665780500,-45.01,0,0,0,0,0
1564665780515.63,-52.98,0,0,0,0,0
1564665780531.25,-62.56,0,0,0,0,0
1564665780546.88,-74.49,0,0,0,0,0
1564665780562.5,-88.97,0,0,0,0,0
1564665780578.13,-105.24,0,0,0,0,0
1564665780593.75,-121.46,0,0,0,0,0
1564665780609.38,-134.87,0,0,0,0,0
1564665780625,-142.53,0,0,0,0,0
1564665780640.63,-142.28,0,0,0,0,0
1564665780656.25,-133.43,0,0,0,0,0
1564665780671.88,-117.08,0,0,0,0,0
1564665780687.5,-95.79,0,0,0,0,0
1564665780703.13,-72.75,0,0,0,0,0
1564665780718.75,-50.86,0,0,0,0,0
1564665780734.38,-32.03,0,0,0,0,0
1564665780750,-17,0,0,0,0,0
1564665780765.63,-5.48,0,0,0,0,0
1564665780781.25,3.31,0,0,0,0,0
1564665780796.88,10.23,0,0,0,0,0
1564665780812.5,15.9,0,0,0,0,0
1564665780828.13,20.59,0,0,0,0,0
1564665780843.75,24.35,0,0,0,0,0
1564665780859.38,27.12,0,0,0,0,0
1564665780875,28.84,0,0,0,0,0
1564665780890.63,29.54,0,0,0,0,0
1564665780906.25,29.33,0,0,0,0,0
1564665780921.88,28.32,0,0,0,0,0
1564665780937.5,26.62,0,0,0,0,0
1564665780953.13,24.41,0,0,0,0,0
1564665780968.75,21.88,0,0,0,0,0
1564665780984.38,19.29,0,0,0,0,0
1564665781000,16.86,0,0,0,0,0
1564665781015.63,14.69,0,0,0,0,0
1564665781031.25,12.7,0,0,0,0,0
1564665781046.88,10.65,0,0,0,0,0
1564665781062.5,8.25,0,0,0,0,0
1564665781078.13,5.31,0,0,0,0,0
1564665781093.75,1.72,0,0,0,0,0
1564665781109.38,-2.48,0,0,0,0,0
1564665781125,-7.22,0,0,0,0,0
1564665781140.63,-12.51,0,0,0,0,0
1564665781156.25,-18.34,0,0,0,0,0
1564665781171.88,-24.67,0,0,0,0,0
1564665781187.5,-31.3,0,0,0,0,0
1564665781203.13,-37.97,0,0,0,0,0
1564665781218.75,-44.42,0,0,0,0,0
1564665781234.38,-50.56,0,0,0,0,0
1564665781250,-56.62,0,0,0,0,0
1564665781265.63,-63.09,0,0,0,0,0
1564665781281.25,-70.66,0,0,0,0,0
1564665781296.88,-79.91,0,0,0,0,0
1564665781312.5,-91.07,0,0,0,0,0
1564665781328.13,-103.73,0,0,0,0,0
1564665781343.75,-116.67,0,0,0,0,0
1564665781359.38,-127.89,0,0,0,0,0
1564665781375,-134.93,0,0,0,0,0
1564665781390.63,-135.48,0,0,0,0,0
1564665781406.25,-128.02,0,0,0,0,0
1564665781421.88,-112.35,0,0,0,0,0
1564665781437.5,-89.8,0,0,0,0,0
1564665781453.13,-62.79,0,0,0,0,0
1564665781468.75,-34.2,0,0,0,0,0
1564665781484.38,-6.62,0,0,0,0,0
1564665781500,18.17,0,0,0,0,0
1564665781515.63,39.3,0,0,0,0,0
1564665781531.25,56.6,0,0,0,0,0
1564665781546.88,70.27,0,0,0,0,0
1564665781562.5,80.59,0,0,0,0,0
1564665781578.13,87.81,0,0,0,0,0
1564665781593.75,92.23,0,0,0,0,0
1564665781609.38,94.24,0,0,0,0,0
1564665781625,94.31,0,0,0,0,0
1564665781640.63,92.96,0,0,0,0,0
1564665781656.25,90.63,0,0,0,0,0
1564665781671.88,87.63,0,0,0,0,0
1564665781687.5,84.21,0,0,0,0,0
1564665781703.13,80.59,0,0,0,0,0
1564665781718.75,76.99,0,0,0,0,0
1564665781734.38,73.66,0,0,0,0,0
1564665781750,70.8,0,0,0,0,0
1564665781765.63,68.43,0,0,0,0,0
1564665781781.25,66.36,0,0,0,0,0
1564665781796.88,64.25,0,0,0,0,0
1564665781812.5,61.71,0,0,0,0,0
1564665781828.13,58.48,0,0,0,0,0
1564665781843.75,54.45,0,0,0,0,0
1564665781859.38,49.65,0,0,0,0,0
1564665781875,44.06,0,0,0,0,0
1564665781890.63,37.6,0,0,0,0,0
1564665781906.25,30.05,0,0,0,0,0
1564665781921.88,21.2,0,0,0,0,0
1564665781937.5,11.06,0,0,0,0,0
1564665781953.13,-0.02,0,0,0,0,0
1564665781968.75,-11.45,0,0,0,0,0
1564665781984.38,-22.57,0,0,0,0,0
1564665782000,-32.88,0,0,0,0,0
1564665782015.63,-42.29,0,0,0,0,0
1564665782031.25,-51.09,0,0,0,0,0
1564665782046.88,-59.9,0,0,0,0,0
1564665782062.5,-69.5,0,0,0,0,0
1564665782078.13,-80.61,0,0,0,0,0
1564665782093.75,-93.67,0,0,0,0,0
1564665782109.38,-108.52,0,0,0,0,0
1564665782125,-124.15,0,0,0,0,0
1564665782140.63,-138.58,0,0,0,0,0
1564665782156.25,-149,0,0,0,0,0
1564665782171.88,-152.49,0,0,0,0,0
1564665782187.5,-146.88,0,0,0,0,0
1564665782203.13,-131.48,0,0,0,0,0
1564665782218.75,-107.47,0,0,0,0,0
1564665782234.38,-77.67,0,0,0,0,0
1564665782250,-45.62,0,0,0,0,0
1564665782265.63,-14.76,0,0,0,0,0
1564665782281.25,12.47,0,0,0,0,0
1564665782296.88,34.86,0,0,0,0,0
1564665782312.5,52.28,0,0,0,0,0
1564665782328.13,65.28,0,0,0,0,0
1564665782343.75,74.54,0,0,0,0,0
1564665782359.38,80.73,0,0,0,0,0
1564665782375,84.33,0,0,0,0,0
1564665782390.63,85.76,0,0,0,0,0
1564665782406.25,85.46,0,0,0,0,0
1564665782421.88,83.9,0,0,0,0,0
1564665782437.5,81.56,0,0,0,0,0
1564665782453.13,78.85,0,0,0,0,0
1564665782468.75,76.1,0,0,0,0,0
1564665782484.38,73.57,0,0,0,0,0
1564665782500,71.46,0,0,0,0,0
1564665782515.63,69.92,0,0,0,0,0
1564665782531.25,69.02,0,0,0,0,0
1564665782546.88,68.64,0,0,0,0,0
1564665782562.5,68.44,0,0,0,0,0
1564665782578.13,67.9,0,0,0,0,0
1564665782593.75,66.45,0,0,0,0,0
1564665782609.38,63.63,0,0,0,0,0
1564665782625,59.21,0,0,0,0,0
1564665782640.63,53.26,0,0,0,0,0
1564665782656.25,46.05,0,0,0,0,0
1564665782671.88,37.92,0,0,0,0,0
1564665782687.5,29.18,0,0,0,0,0
1564665782703.13,20.08,0,0,0,0,0
1564665782718.75,10.75,0,0,0,0,0
1564665782734.38,1.29,0,0,0,0,0
1564665782750,-8.17,0,0,0,0,0
1564665782765.63,-17.47,0,0,0,0,0
1564665782781.25,-26.42,0,0,0,0,0
1564665782796.88,-34.83,0,0,0,0,0
1564665782812.5,-42.69,0,0,0,0,0
1564665782828.13,-50.15,0,0,0,0,0
1564665782843.75,-57.68,0,0,0,0,0
1564665782859.38,-66.03,0,0,0,0,0
1564665782875,-76.04,0,0,0,0,0
1564665782890.63,-88.27,0,0,0,0,0
1564665782906.25,-102.51,0,0,0,0,0
1564665782921.88,-117.5,0,0,0,0,0
1564665782937.5,-130.86,0,0,0,0,0
1564665782953.13,-139.55,0,0,0,0,0
1564665782968.75,-140.81,0,0,0,0,0
1564665782984.38,-133.05,0,0,0,0,0
1564665783000,-116.45,0,0,0,0,0
1564665783015.63,-92.98,0,0,0,0,0
1564665783031.25,-65.75,0,0,0,0,0
1564665783046.88,-38.12,0,0,0,0,0
1564665783062.5,-12.74,0,0,0,0,0
1564665783078.13,8.82,0,0,0,0,0
1564665783093.75,26.15,0,0,0,0,0
1564665783109.38,39.5,0,0,0,0,0
1564665783125,49.36,0,0,0,0,0
1564665783140.63,56.09,0,0,0,0,0
1564665783156.25,59.94,0,0,0,0,0
1564665783171.88,61.19,0,0,0,0,0
1564665783187.5,60.3,0,0,0,0,0
1564665783203.13,58.06,0,0,0,0,0
1564665783218.75,55.42,0,0,0,0,0
1564665783234.38,53.27,0,0,0,0,0
1564665783250,52.21,0,0,0,0,0
1564665783265.63,52.35,0,0,0,0,0
1564665783281.25,53.36,0,0,0,0,0
1564665783296.88,54.64,0,0,0,0,0
1564665783312.5,55.57,0,0,0,0,0
1564665783328.13,55.8,0,0,0,0,0
1564665783343.75,55.27,0,0,0,0,0
1564665783359.38,54.15,0,0,0,0,0
1564665783375,52.6,0,0,0,0,0
1564665783390.63,50.56,0,0,0,0,0
1564665783406.25,47.62,0,0,0,0,0
1564665783421.88,43.2,0,0,0,0,0
1564665783437.5,36.74,0,0,0,0,0
1564665783453.13,28.14,0,0,0,0,0
1564665783468.75,17.82,0,0,0,0,0
1564665783484.38,6.72,0,0,0,0,0
1564665783500,-4.07,0,0,0,0,0
1564665783515.63,-13.71,0,0,0,0,0
1564665783531.25,-21.94,0,0,0,0,0
1564665783546.88,-29.2,0,0,0,0,0
1564665783562.5,-36.4,0,0,0,0,0
1564665783578.13,-44.6,0,0,0,0,0
1564665783593.75,-54.69,0,0,0,0,0
1564665783609.38,-67.14,0,0,0,0,0
1564665783625,-81.91,0,0,0,0,0
1564665783640.63,-98.33,0,0,0,0,0
1564665783656.25,-114.99,0,0,0,0,0
1564665783671.88,-129.69,0,0,0,0,0
1564665783687.5,-139.78,0,0,0,0,0
1564665783703.13,-142.55,0,0,0,0,0
1564665783718.75,-136.16,0,0,0,0,0
1564665783734.38,-120.25,0,0,0,0,0
1564665783750,-96.25,0,0,0,0,0
1564665783765.63,-66.97,0,0,0,0,0
1564665783781.25,-35.84,0,0,0,0,0
1564665783796.88,-5.92,0,0,0,0,0
1564665783812.5,20.75,0,0,0,0,0
1564665783828.13,43.27,0,0,0,0,0
1564665783843.75,61.64,0,0,0,0,0
1564665783859.38,76.19,0,0,0,0,0
1564665783875,87.23,0,0,0,0,0
1564665783890.63,94.84,0,0,0,0,0
1564665783906.25,99,0,0,0,0,0
1564665783921.88,99.81,0,0,0,0,0
1564665783937.5,97.7,0,0,0,0,0
1564665783953.13,93.44,0,0,0,0,0
1564665783968.75,88.08,0,0,0,0,0
1564665783984.38,82.65,0,0,0,0,0
1564665784000,77.96,0,0,0,0,0
1564665784015.63,74.46,0,0,0,0,0
1564665784031.25,72.2,0,0,0,0,0
1564665784046.88,70.93,0,0,0,0,0
1564665784062.5,70.21,0,0,0,0,0
1564665784078.13,69.56,0,0,0,0,0
1564665784093.75,68.59,0,0,0,0,0
1564665784109.38,67.03,0,0,0,0,0
1564665784125,64.73,0,0,0,0,0
1564665784140.63,61.58,0,0,0,0,0
1564665784156.25,57.5,0,0,0,0,0
1564665784171.88,52.33,0,0,0,0,0
1564665784187.5,45.84,0,0,0,0,0
1564665784203.13,37.79,0,0,0,0,0
1564665784218.75,28.07,0,0,0,0,0
1564665784234.38,16.77,0,0,0,0,0
1564665784250,4.17,0,0,0,0,0
1564665784265.63,-9.25,0,0,0,0,0
1564665784281.25,-23.02,0,0,0,0,0
1564665784296.88,-36.7,0,0,0,0,0
1564665784312.5,-49.96,0,0,0,0,0
1564665784328.13,-62.61,0,0,0,0,0
1564665784343.75,-74.64,0,0,0,0,0
1564665784359.38,-86.36,0,0,0,0,0
1564665784375,-98.43,0,0,0,0,0
1564665784390.63,-111.74,0,0,0,0,0
1564665784406.25,-126.97,0,0,0,0,0
1564665784421.88,-143.98,0,0,0,0,0
1564665784437.5,-161.32,0,0,0,0,0
1564665784453.13,-176.15,0,0,0,0,0
1564665784468.75,-184.86,0,0,0,0,0
1564665784484.38,-184.19,0,0,0,0,0
1564665784500,-172.41,0,0,0,0,0
1564665784515.63,-150.09,0,0,0,0,0
1564665784531.25,-119.97,0,0,0,0,0
1564665784546.88,-86.13,0,0,0,0,0
1564665784562.5,-52.66,0,0,0,0,0
1564665784578.13,-22.67,0,0,0,0,0
1564665784593.75,2.27,0,0,0,0,0
1564665784609.38,21.97,0,0,0,0,0
1564665784625,37.11,0,0,0,0,0
1564665784640.63,48.61,0,0,0,0,0
1564665784656.25,57.27,0,0,0,0,0
1564665784671.88,63.76,0,0,0,0,0
1564665784687.5,68.57,0,0,0,0,0
1564665784703.13,72.1,0,0,0,0,0
1564665784718.75,74.7,0,0,0,0,0
1564665784734.38,76.53,0,0,0,0,0
1564665784750,77.62,0,0,0,0,0
1564665784765.63,77.99,0,0,0,0,0
1564665784781.25,77.7,0,0,0,0,0
1564665784796.88,77.04,0,0,0,0,0
1564665784812.5,76.37,0,0,0,0,0
1564665784828.13,76.07,0,0,0,0,0
1564665784843.75,76.32,0,0,0,0,0
1564665784859.38,77.01,0,0,0,0,0
1564665784875,77.74,0,0,0,0,0
1564665784890.63,77.94,0,0,0,0,0
1564665784906.25,77.07,0,0,0,0,0
1564665784921.88,74.77,0,0,0,0,0
1564665784937.5,70.93,0,0,0,0,0
1564665784953.13,65.74,0,0,0,0,0
1564665784968.75,59.52,0,0,0,0,0
1564665784984.38,52.65,0,0,0,0,0
1564665785000,45.37,0,0,0,0,0
1564665785015.63,37.77,0,0,0,0,0
1564665785031.25,29.76,0,0,0,0,0
1564665785046.88,21.19,0,0,0,0,0
1564665785062.5,12.02,0,0,0,0,0
1564665785078.13,2.44,0,0,0,0,0
1564665785093.75,-7.15,0,0,0,0,0
1564665785109.38,-16.27,0,0,0,0,0
1564665785125,-24.55,0,0,0,0,0
1564665785140.63,-32.03,0,0,0,0,0
1564665785156.25,-39.15,0,0,0,0,0
1564665785171.88,-46.76,0,0,0,0,0
1564665785187.5,-55.66,0,0,0,0,0
1564665785203.13,-66.27,0,0,0,0,0
1564665785218.75,-78.12,0,0,0,0,0
1564665785234.38,-89.65,0,0,0,0,0
1564665785250,-98.34,0,0,0,0,0
1564665785265.63,-101.32,0,0,0,0,0
1564665785281.25,-96.22,0,0,0,0,0
1564665785296.88,-81.92,0,0,0,0,0
1564665785312.5,-59.05,0,0,0,0,0
1564665785328.13,-29.83,0,0,0,0,0
1564665785343.75,2.46,0,0,0,0,0
1564665785359.38,34.29,0,0,0,0,0
1564665785375,62.67,0,0,0,0,0
1564665785390.63,85.58,0,0,0,0,0
1564665785406.25,102.15,0,0,0,0,0
1564665785421.88,112.59,0,0,0,0,0
1564665785437.5,117.86,0,0,0,0,0
1564665785453.13,119.4,0,0,0,0,0
1564665785468.75,118.76,0,0,0,0,0
1564665785484.38,117.25,0,0,0,0,0
1564665785500,115.79,0,0,0,0,0
1564665785515.63,114.94,0,0,0,0,0
1564665785531.25,114.94,0,0,0,0,0
1564665785546.88,115.89,0,0,0,0,0
1564665785562.5,117.79,0,0,0,0,0
1564665785578.13,120.41,0,0,0,0,0
1564665785593.75,123.27,0,0,0,0,0
1564665785609.38,125.57,0,0,0,0,0
1564665785625,126.39,0,0,0,0,0
1564665785640.63,124.91,0,0,0,0,0
1564665785656.25,120.63,0,0,0,0,0
1564665785671.88,113.46,0,0,0,0,0
1564665785687.5,103.71,0,0,0,0,0
1564665785703.13,91.89,0,0,0,0,0
1564665785718.75,78.61,0,0,0,0,0
1564665785734.38,64.52,0,0,0,0,0
1564665785750,50.24,0,0,0,0,0
1564665785765.63,36.32,0,0,0,0,0
1564665785781.25,23.08,0,0,0,0,0
1564665785796.88,10.43,0,0,0,0,0
1564665785812.5,-2.22,0,0,0,0,0
1564665785828.13,-15.84,0,0,0,0,0
1564665785843.75,-31.44,0,0,0,0,0
1564665785859.38,-49.47,0,0,0,0,0
1564665785875,-69.4,0,0,0,0,0
1564665785890.63,-89.62,0,0,0,0,0
1564665785906.25,-107.92,0,0,0,0,0
1564665785921.88,-122.21,0,0,0,0,0
1564665785937.5,-131.4,0,0,0,0,0
1564665785953.13,-135.9,0,0,0,0,0
1564665785968.75,-137.4,0,0,0,0,0
1564665785984.38,-138.32,0,0,0,0,0
1564665786000,-141.01,0,0,0,0,0
1564665786015.63,-147.08,0,0,0,0,0
1564665786031.25,-157.09,0,0,0,0,0
1564665786046.88,-170.42,0,0,0,0,0
1564665786062.5,-185.41,0,0,0,0,0
1564665786078.13,-199.51,0,0,0,0,0
1564665786093.75,-209.81,0,0,0,0,0
1564665786109.38,-213.67,0,0,0,0,0
1564665786125,-209.57,0,0,0,0,0
1564665786140.63,-197.6,0,0,0,0,0
1564665786156.25,-179.68,0,0,0,0,0
1564665786171.88,-159.03,0,0,0,0,0
1564665786187.5,-139.17,0,0,0,0,0
1564665786203.13,-122.97,0,0,0,0,0
1564665786218.75,-112.01,0,0,0,0,0
1564665786234.38,-106.39,0,0,0,0,0
1564665786250,-105.16,0,0,0,0,0
1564665786265.63,-106.94,0,0,0,0,0
1564665786281.25,-110.66,0,0,0,0,0
1564665786296.88,-115.74,0,0,0,0,0
1564665786312.5,-122.11,0,0,0,0,0
1564665786328.13,-129.79,0,0,0,0,0
1564665786343.75,-138.43,0,0,0,0,0
1564665786359.38,-147.16,0,0,0,0,0
1564665786375,-154.61,0,0,0,0,0
1564665786390.63,-159.38,0,0,0,0,0
1564665786406.25,-160.38,0,0,0,0,0
1564665786421.88,-157.28,0,0,0,0,0
1564665786437.5,-150.37,0,0,0,0,0
1564665786453.13,-140.27,0,0,0,0,0
1564665786468.75,-127.57,0,0,0,0,0
1564665786484.38,-112.53,0,0,0,0,0
1564665786500,-95.16,0,0,0,0,0
1564665786515.63,-75.43,0,0,0,0,0
1564665786531.25,-53.64,0,0,0,0,0
1564665786546.88,-30.79,0,0,0,0,0
1564665786562.5,-8.58,0,0,0,0,0
1564665786578.13,10.87,0,0,0,0,0
1564665786593.75,25.57,0,0,0,0,0
1564665786609.38,34.51,0,0,0,0,0
1564665786625,38.11,0,0,0,0,0
1564665786640.63,38.53,0,0,0,0,0
1564665786656.25,39.32,0,0,0,0,0
1564665786671.88,44.66,0,0,0,0,0
1564665786687.5,58.29,0,0,0,0,0
1564665786703.13,82.26,0,0,0,0,0
1564665786718.75,115.9,0,0,0,0,0
1564665786734.38,155.5,0,0,0,0,0
1564665786750,195.06,0,0,0,0,0
1564665786765.63,228.05,0,0,0,0,0
1564665786781.25,249.18,0,0,0,0,0
1564665786796.88,255.85,0,0,0,0,0
1564665786812.5,248.41,0,0,0,0,0
1564665786828.13,229.29,0,0,0,0,0
1564665786843.75,201.73,0,0,0,0,0
1564665786859.38,168.83,0,0,0,0,0
1564665786875,133.36,0,0,0,0,0
1564665786890.63,98.17,0,0,0,0,0
1564665786906.25,66.55,0,0,0,0,0
1564665786921.88,41.95,0,0,0,0,0
1564665786937.5,27.01,0,0,0,0,0
1564665786953.13,22.45,0,0,0,0,0
1564665786968.75,26.6,0,0,0,0,0
1564665786984.38,36,0,0,0,0,0
1564665787000,46.73,0,0,0,0,0
1564665787015.63,56.03,1,0,0,0,0
1564665787031.25,63.15,1,0,0,0,0
1564665787046.88,69.2,1,0,0,0,0
1564665787062.5,76.29,1,0,0,0,0
1564665787078.13,86.31,1,0,0,0,0
1564665787093.75,100.01,1,0,0,0,0
1564665787109.38,116.78,1,0,0,0,0
1564665787125,134.88,1,0,0,0,0
1564665787140.63,152.19,1,0,0,0,0
1564665787156.25,166.86,1,0,0,0,0
1564665787171.88,177.75,0,0,0,0,0
1564665787187.5,184.48,0,0,0,0,0
1564665787203.13,187.31,0,0,0,0,0
1564665787218.75,186.95,0,0,0,0,0
1564665787234.38,184.19,0,0,0,0,0
1564665787250,179.65,0,0,0,0,0
1564665787265.63,173.58,0,0,0,0,0
1564665787281.25,165.63,0,0,0,0,0
1564665787296.88,155.03,0,0,0,0,0
1564665787312.5,141.04,0,0,0,0,0
1564665787328.13,123.47,0,0,0,0,0
1564665787343.75,103.11,0,0,0,0,0
1564665787359.38,81.63,0,0,0,0,0
1564665787375,61.21,0,0,0,0,0
1564665787390.63,43.78,0,0,0,0,0
1564665787406.25,30.58,0,0,0,0,0
1564665787421.88,21.88,0,0,0,0,0
1564665787437.5,17.19,0,0,0,0,0
1564665787453.13,15.47,0,0,0,0,0
1564665787468.75,15.28,0,0,0,0,0
1564665787484.38,15.06,0,0,0,0,0
1564665787500,13.26,0,0,0,0,0
1564665787515.63,8.71,0,0,0,0,0
1564665787531.25,0.94,0,0,0,0,0
1564665787546.88,-9.56,0,0,0,0,0
1564665787562.5,-21.43,0,0,0,0,0
1564665787578.13,-32.76,0,0,0,0,0
1564665787593.75,-41.6,0,0,0,0,0
1564665787609.38,-46.56,0,0,0,0,0
1564665787625,-47.11,0,0,0,0,0
1564665787640.63,-43.79,0,0,0,0,0
1564665787656.25,-38.01,0,0,0,0,0
1564665787671.88,-31.59,0,0,0,0,0
1564665787687.5,-26.2,0,0,0,0,0
1564665787703.13,-22.76,0,0,0,0,0
1564665787718.75,-21.11,0,0,0,0,0
1564665787734.38,-20.05,0,0,0,0,0
1564665787750,-17.92,0,0,0,0,0
1564665787765.63,-13.22,0,0,0,0,0
1564665787781.25,-5.29,0,0,0,0,0
1564665787796.88,5.4,0,0,0,0,0
1564665787812.5,17.51,0,0,0,0,0
1564665787828.13,29.33,0,0,0,0,0
1564665787843.75,39.37,0,0,0,0,0
1564665787859.38,46.71,0,0,0,0,0
1564665787875,51.16,0,0,0,0,0
1564665787890.63,53.09,0,0,0,0,0
1564665787906.25,53.24,0,0,0,0,0
1564665787921.88,52.35,0,0,0,0,0
1564665787937.5,51.11,0,0,0,0,0
1564665787953.13,49.97,0,0,0,0,0
1564665787968.75,49.2,0,0,0,0,0
1564665787984.38,48.96,0,0,0,0,0
1564665788000,49.35,0,0,0,0,0
1564665788015.63,50.46,0,0,0,0,0
1564665788031.25,52.33,0,0,0,0,0
1564665788046.88,54.89,0,0,0,0,0
1564665788062.5,57.88,0,0,0,0,0
1564665788078.13,60.95,0,0,0,0,0
1564665788093.75,63.86,0,0,0,0,0
1564665788109.38,66.58,0,0,0,0,0
1564665788125,69.34,0,0,0,0,0
1564665788140.63,72.34,0,0,0,0,0
1564665788156.25,75.41,0,0,0,0,0
1564665788171.88,77.8,0,0,0,0,0
1564665788187.5,78.34,0,0,0,0,0
1564665788203.13,75.76,0,0,0,0,0
1564665788218.75,69.27,0,0,0,0,0
1564665788234.38,58.93,0,0,0,0,0
1564665788250,45.7,0,0,0,0,0
1564665788265.63,31.15,0,0,0,0,0
1564665788281.25,17.06,0,0,0,0,0
1564665788296.88,4.91,0,0,0,0,0
1564665788312.5,-4.46,0,0,0,0,0
1564665788328.13,-10.89,0,0,0,0,0
1564665788343.75,-14.88,0,0,0,0,0
1564665788359.38,-17.19,0,0,0,0,0
1564665788375,-18.6,0,0,0,0,0
1564665788390.63,-19.64,0,0,0,0,0
1564665788406.25,-20.53,0,0,0,0,0
1564665788421.88,-21.39,0,0,0,0,0
1564665788437.5,-22.48,0,0,0,0,0
1564665788453.13,-24.26,0,0,0,0,0
1564665788468.75,-27.27,0,0,0,0,0
1564665788484.38,-31.74,0,0,0,0,0
1564665788500,-37.31,0,0,0,0,0
1564665788515.63,-43.06,0,0,0,0,0
1564665788531.25,-47.93,0,0,0,0,0
1564665788546.88,-51.24,0,0,0,0,0
1564665788562.5,-53.01,0,0,0,0,0
1564665788578.13,-54,0,0,0,0,0
1564665788593.75,-55.24,0,0,0,0,0
1564665788609.38,-57.55,0,0,0,0,0
1564665788625,-61.21,0,0,0,0,0
1564665788640.63,-65.93,0,0,0,0,0
1564665788656.25,-71.18,0,0,0,0,0
1564665788671.88,-76.4,0,0,0,0,0
1564665788687.5,-81.28,0,0,0,0,0
1564665788703.13,-85.65,0,0,0,0,0
1564665788718.75,-89.43,0,0,0,0,0
1564665788734.38,-92.55,0,0,0,0,0
1564665788750,-94.91,0,0,0,0,0
1564665788765.63,-96.51,0,0,0,0,0
1564665788781.25,-97.4,0,0,0,0,0
1564665788796.88,-97.72,0,0,0,0,0
1564665788812.5,-97.63,0,0,0,0,0
1564665788828.13,-97.22,0,0,0,0,0
1564665788843.75,-96.54,0,0,0,0,0
1564665788859.38,-95.61,0,0,0,0,0
1564665788875,-94.5,0,0,0,0,0
1564665788890.63,-93.21,0,0,0,0,0
1564665788906.25,-91.65,0,0,0,0,0
1564665788921.88,-89.6,0,0,0,0,0
1564665788937.5,-86.76,0,0,0,0,0
1564665788953.13,-83,0,0,0,0,0
1564665788968.75,-78.5,0,0,0,0,0
1564665788984.38,-73.81,0,0,0,0,0
1564665789000,-69.72,0,0,0,0,0
1564665789015.63,-66.98,0,0,0,0,0
1564665789031.25,-65.99,0,0,0,0,0
1564665789046.88,-66.76,0,0,0,0,0
1564665789062.5,-68.85,0,0,0,0,0
1564665789078.13,-71.64,0,0,0,0,0
1564665789093.75,-74.44,0,0,0,0,0
1564665789109.38,-76.74,0,0,0,0,0
1564665789125,-78.2,0,0,0,0,0
1564665789140.63,-78.67,0,0,0,0,0
1564665789156.25,-78.01,0,0,0,0,0
1564665789171.88,-76.13,0,0,0,0,0
1564665789187.5,-72.92,0,0,0,0,0
1564665789203.13,-68.3,0,0,0,0,0
1564665789218.75,-62.33,0,0,0,0,0
1564665789234.38,-55.25,0,0,0,0,0
1564665789250,-47.47,0,0,0,0,0
1564665789265.63,-39.45,0,0,0,0,0
1564665789281.25,-31.63,0,0,0,0,0
1564665789296.88,-24.35,0,0,0,0,0
1564665789312.5,-17.86,0,0,0,0,0
1564665789328.13,-12.34,0,0,0,0,0
1564665789343.75,-7.87,0,0,0,0,0
1564665789359.38,-4.44,0,0,0,0,0
1564665789375,-1.87,0,0,0,0,0
1564665789390.63,0.2,0,0,0,0,0
1564665789406.25,2.25,0,0,0,0,0
1564665789421.88,4.65,0,0,0,0,0
1564665789437.5,7.63,0,0,0,0,0
1564665789453.13,11.18,0,0,0,0,0
1564665789468.75,15.18,0,0,0,0,0
1564665789484.38,19.4,0,0,0,0,0
1564665789500,23.62,0,0,0,0,0
1564665789515.63,27.63,0,0,0,0,0
1564665789531.25,31.19,0,0,0,0,0
1564665789546.88,34.09,0,0,0,0,0
1564665789562.5,36.1,0,0,0,0,0
1564665789578.13,37.11,0,0,0,0,0
1564665789593.75,37.15,0,0,0,0,0
1564665789609.38,36.32,0,0,0,0,0
1564665789625,34.81,0,0,0,0,0
1564665789640.63,32.82,0,0,0,0,0
1564665789656.25,30.5,0,0,0,0,0
1564665789671.88,27.96,0,0,0,0,0
1564665789687.5,25.3,0,0,0,0,0
1564665789703.13,22.56,0,0,0,0,0
1564665789718.75,19.8,0,0,0,0,0
1564665789734.38,17.11,0,0,0,0,0
1564665789750,14.64,0,0,0,0,0
1564665789765.63,12.53,0,0,0,0,0
1564665789781.25,10.98,0,0,0,0,0
1564665789796.88,10.04,0,0,0,0,0
1564665789812.5,9.57,0,0,0,0,0
1564665789828.13,9.26,0,0,0,0,0
1564665789843.75,8.57,0,0,0,0,0
1564665789859.38,7.06,0,0,0,0,0
1564665789875,4.47,0,0,0,0,0
1564665789890.63,0.94,0,0,0,0,0
1564665789906.25,-2.96,0,0,0,0,0
1564665789921.88,-6.28,0,0,0,0,0
1564665789937.5,-7.97,0,0,0,0,0
1564665789953.13,-7.09,0,0,0,0,0
1564665789968.75,-3.1,0,0,0,0,0
1564665789984.38,3.9,0,0,0,0,0
1564665790000,13.28,0,0,0,0,0
1564665790015.63,24.02,0,0,0,0,0
1564665790031.25,35.08,0,0,0,0,0
1564665790046.88,45.67,0,0,0,0,0
1564665790062.5,55.37,0,0,0,0,0
1564665790078.13,64.08,0,0,0,0,0
1564665790093.75,71.76,0,0,0,0,0
1564665790109.38,78.15,0,0,0,0,0
1564665790125,82.64,0,0,0,0,0
1564665790140.63,84.46,0,0,0,0,0
1564665790156.25,83,0,0,0,0,0
1564665790171.88,78.25,0,0,0,0,0
1564665790187.5,71.03,0,0,0,0,0
1564665790203.13,62.87,0,0,0,0,0
1564665790218.75,55.52,0,0,0,0,0
1564665790234.38,50.25,0,0,0,0,0
1564665790250,47.45,0,0,0,0,0
1564665790265.63,46.42,0,0,0,0,0
1564665790281.25,45.76,0,0,0,0,0
1564665790296.88,43.9,0,0,0,0,0
1564665790312.5,39.6,0,0,0,0,0
1564665790328.13,32.08,0,0,0,0,0
1564665790343.75,21.1,0,0,0,0,0
1564665790359.38,7.05,0,0,0,0,0
1564665790375,-8.82,0,0,0,0,0
1564665790390.63,-24.25,0,0,0,0,0
1564665790406.25,-36.51,0,0,0,0,0
1564665790421.88,-43.3,0,0,0,0,0
1564665790437.5,-43.9,0,0,0,0,0
1564665790453.13,-39.7,0,0,0,0,0
1564665790468.75,-33.83,0,0,0,0,0
1564665790484.38,-29.91,0,0,0,0,0
1564665790500,-30.59,0,0,0,0,0
1564665790515.63,-36.67,0,0,0,0,0
1564665790531.25,-47.2,0,0,0,0,0
1564665790546.88,-60.39,0,0,0,0,0
1564665790562.5,-74.57,0,0,0,0,0
1564665790578.13,-88.74,0,0,0,0,0
1564665790593.75,-102.5,0,0,0,0,0
1564665790609.38,-115.56,0,0,0,0,0
1564665790625,-127.41,0,0,0,0,0
1564665790640.63,-137.3,0,0,0,0,0
1564665790656.25,-144.48,0,0,0,0,0
1564665790671.88,-148.5,0,0,0,0,0
1564665790687.5,-149.28,0,0,0,0,0
1564665790703.13,-146.96,0,0,0,0,0
1564665790718.75,-141.76,0,0,0,0,0
1564665790734.38,-134.07,0,0,0,0,0
1564665790750,-124.23,0,0,0,0,0
1564665790765.63,-112.61,0,0,0,0,0
1564665790781.25,-99.62,0,0,0,0,0
1564665790796.88,-85.73,0,0,0,0,0
1564665790812.5,-71.52,0,0,0,0,0
1564665790828.13,-57.63,0,0,0,0,0
1564665790843.75,-44.62,0,0,0,0,0
1564665790859.38,-32.8,0,0,0,0,0
1564665790875,-22,0,0,0,0,0
1564665790890.63,-11.58,0,0,0,0,0
1564665790906.25,-0.59,0,0,0,0,0
1564665790921.88,11.89,0,0,0,0,0
1564665790937.5,26.28,0,0,0,0,0
1564665790953.13,42.34,0,0,0,0,0
1564665790968.75,59.11,0,0,0,0,0
1564665790984.38,75.1,0,0,0,0,0
1564665791000,88.65,0,0,0,0,0
1564665791015.63,98.37,0,0,0,0,0
1564665791031.25,103.65,0,0,0,0,0
1564665791046.88,104.85,0,0,0,0,0
1564665791062.5,103.33,0,0,0,0,0
1564665791078.13,101,0,0,0,0,0
1564665791093.75,99.85,0,0,0,0,0
1564665791109.38,101.28,0,0,0,0,0
1564665791125,105.71,0,0,0,0,0
1564665791140.63,112.7,0,0,0,0,0
1564665791156.25,121.13,0,0,0,0,0
1564665791171.88,129.69,0,0,0,0,0
1564665791187.5,137.17,0,0,0,0,0
1564665791203.13,142.57,0,0,0,0,0
1564665791218.75,144.91,0,0,0,0,0
1564665791234.38,143.29,0,0,0,0,0
1564665791250,136.91,0,0,0,0,0
1564665791265.63,125.25,0,0,0,0,0
1564665791281.25,108.46,0,0,0,0,0
1564665791296.88,87.49,0,0,0,0,0
1564665791312.5,64.05,0,0,0,0,0
1564665791328.13,40.18,0,0,0,0,0
1564665791343.75,17.74,0,0,0,0,0
1564665791359.38,-2.04,0,0,0,0,0
1564665791375,-18.91,0,0,0,0,0
1564665791390.63,-33.38,0,0,0,0,0
1564665791406.25,-46.29,0,0,0,0,0
1564665791421.88,-58.28,0,0,0,0,0
1564665791437.5,-69.31,0,0,0,0,0
1564665791453.13,-78.68,0,0,0,0,0
1564665791468.75,-85.28,0,0,0,0,0
1564665791484.38,-88.24,0,0,0,0,0
1564665791500,-87.32,0,0,0,0,0
1564665791515.63,-83.01,0,0,0,0,0
1564665791531.25,-76.31,0,0,0,0,0
1564665791546.88,-68.29,0,0,0,0,0
1564665791562.5,-59.79,0,0,0,0,0
1564665791578.13,-51.48,0,0,0,0,0
1564665791593.75,-44.05,0,0,0,0,0
1564665791609.38,-38.4,0,0,0,0,0
1564665791625,-35.49,0,0,0,0,0
1564665791640.63,-36.05,0,0,0,0,0
1564665791656.25,-40.01,0,0,0,0,0
1564665791671.88,-46.27,0,0,0,0,0
1564665791687.5,-52.97,0,0,0,0,0
1564665791703.13,-58.05,0,0,0,0,0
1564665791718.75,-60.17,0,0,0,0,0
1564665791734.38,-59.06,0,0,0,0,0
1564665791750,-55.42,0,0,0,0,0
1564665791765.63,-50.26,0,0,0,0,0
1564665791781.25,-44.36,0,0,0,0,0
1564665791796.88,-38.05,0,0,0,0,0
1564665791812.5,-31.47,0,0,0,0,0
1564665791828.13,-25.01,0,0,0,0,0
1564665791843.75,-19.59,0,0,0,0,0
1564665791859.38,-16.37,0,0,0,0,0
1564665791875,-16.24,0,0,0,0,0
1564665791890.63,-19.21,0,0,0,0,0
1564665791906.25,-24.35,0,0,0,0,0
1564665791921.88,-30.09,0,0,0,0,0
1564665791937.5,-35.03,0,0,0,0,0
1564665791953.13,-38.48,0,0,0,0,0
1564665791968.75,-40.66,0,0,0,0,0
1564665791984.38,-42.41,0,0,0,0,0
1564665792000,-44.74,0,0,0,0,0
1564665792015.63,-48.42,0,0,0,0,0
1564665792031.25,-53.83,0,0,0,0,0
1564665792046.88,-61.05,0,0,0,0,0
1564665792062.5,-69.86,0,0,0,0,0
1564665792078.13,-79.82,0,0,0,0,0
1564665792093.75,-90.17,0,0,0,0,0
1564665792109.38,-100.02,0,0,0,0,0
1564665792125,-108.51,0,0,0,0,0
1564665792140.63,-115.02,0,0,0,0,0
1564665792156.25,-119.25,0,0,0,0,0
1564665792171.88,-121.26,0,0,0,0,0
1564665792187.5,-121.42,0,0,0,0,0
1564665792203.13,-120.29,0,0,0,0,0
1564665792218.75,-118.69,0,0,0,0,0
1564665792234.38,-117.54,0,0,0,0,0
1564665792250,-117.58,0,0,0,0,0
1564665792265.63,-118.96,0,0,0,0,0
1564665792281.25,-120.67,0,0,0,0,0
1564665792296.88,-120.47,0,0,0,0,0
1564665792312.5,-115.45,0,0,0,0,0
1564665792328.13,-103.04,0,0,0,0,0
1564665792343.75,-82.24,0,0,0,0,0
1564665792359.38,-54.38,0,0,0,0,0
1564665792375,-22.8,0,0,0,0,0
1564665792390.63,8.09,0,0,0,0,0
1564665792406.25,34.35,0,0,0,0,0
1564665792421.88,53.5,0,0,0,0,0
1564665792437.5,64.99,0,0,0,0,0
1564665792453.13,69.71,0,0,0,0,0
1564665792468.75,69.17,0,0,0,0,0
1564665792484.38,64.82,0,0,0,0,0
1564665792500,57.74,0,0,0,0,0
1564665792515.63,48.9,0,0,0,0,0
1564665792531.25,39.33,0,0,0,0,0
1564665792546.88,30.24,0,0,0,0,0
1564665792562.5,22.75,0,0,0,0,0
1564665792578.13,17.55,0,0,0,0,0
1564665792593.75,14.57,0,0,0,0,0
1564665792609.38,13.06,0,0,0,0,0
1564665792625,11.94,0,0,0,0,0
1564665792640.63,10.21,0,0,0,0,0
1564665792656.25,7.43,0,0,0,0,0
1564665792671.88,3.86,0,0,0,0,0
1564665792687.5,0.24,0,0,0,0,0
1564665792703.13,-2.54,0,0,0,0,0
1564665792718.75,-3.82,0,0,0,0,0
1564665792734.38,-3.52,0,0,0,0,0
1564665792750,-2.08,0,0,0,0,0
1564665792765.63,-0.35,0,0,0,0,0
1564665792781.25,0.79,0,0,0,0,0
1564665792796.88,0.72,0,0,0,0,0
1564665792812.5,-0.75,0,0,0,0,0
1564665792828.13,-3.43,0,0,0,0,0
1564665792843.75,-6.89,0,0,0,0,0
1564665792859.38,-10.68,0,0,0,0,0
1564665792875,-14.54,0,0,0,0,0
1564665792890.63,-18.35,0,0,0,0,0
1564665792906.25,-22.2,0,0,0,0,0
1564665792921.88,-26.38,0,0,0,0,0
1564665792937.5,-31.28,0,0,0,0,0
1564665792953.13,-37.33,0,0,0,0,0
1564665792968.75,-44.6,0,0,0,0,0
1564665792984.38,-52.33,0,0,0,0,0
1564665793000,-58.75,0,0,0,0,0
1564665793015.63,-61.24,0,0,0,0,0
1564665793031.25,-57.16,0,0,0,0,0
1564665793046.88,-44.78,0,0,0,0,0
1564665793062.5,-24.1,0,0,0,0,0
1564665793078.13,3.08,0,0,0,0,0
1564665793093.75,33.81,0,0,0,0,0
1564665793109.38,64.99,0,0,0,0,0
1564665793125,94.28,0,0,0,0,0
1564665793140.63,120.35,0,0,0,0,0
1564665793156.25,142.59,0,0,0,0,0
1564665793171.88,160.74,0,0,0,0,0
1564665793187.5,174.52,0,0,0,0,0
1564665793203.13,183.75,0,0,0,0,0
1564665793218.75,188.57,0,0,0,0,0
1564665793234.38,189.68,0,0,0,0,0
1564665793250,188.16,0,0,0,0,0
1564665793265.63,185.01,0,0,0,0,0
1564665793281.25,180.77,0,0,0,0,0
1564665793296.88,175.36,0,0,0,0,0
1564665793312.5,168.21,0,0,0,0,0
1564665793328.13,158.8,0,0,0,0,0
1564665793343.75,147.07,0,0,0,0,0
1564665793359.38,133.63,0,0,0,0,0
1564665793375,119.68,0,0,0,0,0
1564665793390.63,106.54,0,0,0,0,0
1564665793406.25,95.22,0,0,0,0,0
1564665793421.88,86.09,0,0,0,0,0
1564665793437.5,78.9,0,0,0,0,0
1564665793453.13,72.88,0,0,0,0,0
1564665793468.75,67.11,0,0,0,0,0
1564665793484.38,60.75,0,0,0,0,0
1564665793500,53.25,0,0,0,0,0
1564665793515.63,44.45,0,0,0,0,0
1564665793531.25,34.59,0,0,0,0,0
1564665793546.88,24.25,0,0,0,0,0
1564665793562.5,14.21,0,0,0,0,0
1564665793578.13,5.23,0,0,0,0,0
1564665793593.75,-2.23,0,0,0,0,0
1564665793609.38,-8.17,0,0,0,0,0
1564665793625,-13.09,0,0,0,0,0
1564665793640.63,-17.67,0,0,0,0,0
1564665793656.25,-22.49,0,0,0,0,0
1564665793671.88,-27.78,0,0,0,0,0
1564665793687.5,-33.46,0,0,0,0,0
1564665793703.13,-39.34,0,0,0,0,0
1564665793718.75,-45.39,0,0,0,0,0
1564665793734.38,-51.79,0,0,0,0,0
1564665793750,-58.73,0,0,0,0,0
1564665793765.63,-66.03,0,0,0,0,0
1564665793781.25,-73,0,0,0,0,0
1564665793796.88,-78.44,0,0,0,0,0
1564665793812.5,-80.98,0,0,0,0,0
1564665793828.13,-79.63,0,0,0,0,0
1564665793843.75,-74.05,0,0,0,0,0
1564665793859.38,-64.82,0,0,0,0,0
1564665793875,-53.13,0,0,0,0,0
1564665793890.63,-40.44,0,0,0,0,0
1564665793906.25,-28.04,0,0,0,0,0
1564665793921.88,-16.67,0,0,0,0,0
1564665793937.5,-6.4,0,0,0,0,0
1564665793953.13,3.24,0,0,0,0,0
1564665793968.75,12.92,0,0,0,0,0
1564665793984.38,23.22,0,0,0,0,0
1564665794000,34.44,0,0,0,0,0
1564665794015.63,46.61,0,0,0,0,0
1564665794031.25,59.7,0,0,0,0,0
1564665794046.88,73.71,0,0,0,0,0
1564665794062.5,88.63,0,0,0,0,0
1564665794078.13,104.39,0,0,0,0,0
1564665794093.75,120.68,0,0,0,0,0
1564665794109.38,136.93,0,0,0,0,0
1564665794125,152.44,0,0,0,0,0
1564665794140.63,166.49,0,0,0,0,0
1564665794156.25,178.34,0,0,0,0,0
1564665794171.88,187.16,0,0,0,0,0
1564665794187.5,191.82,0,0,0,0,0
1564665794203.13,191.13,0,0,0,0,0
1564665794218.75,184.09,0,0,0,0,0
1564665794234.38,170.45,0,0,0,0,0
1564665794250,150.95,0,0,0,0,0
1564665794265.63,127.02,0,0,0,0,0
1564665794281.25,100.2,0,0,0,0,0
1564665794296.88,71.49,0,0,0,0,0
1564665794312.5,41.09,0,0,0,0,0
1564665794328.13,8.76,0,0,0,0,0
1564665794343.75,-25.55,0,0,0,0,0
1564665794359.38,-61.22,0,0,0,0,0
1564665794375,-97,0,0,0,0,0
1564665794390.63,-131.44,0,0,0,0,0
1564665794406.25,-163.72,0,0,0,0,0
1564665794421.88,-194.05,0,0,0,0,0
1564665794437.5,-223.81,0,0,0,0,0
1564665794453.13,-255.15,0,0,0,0,0
1564665794468.75,-290.55,0,0,0,0,0
1564665794484.38,-332.26,0,0,0,0,0
1564665794500,-381.48,0,0,0,0,0
1564665794515.63,-437.22,0,0,0,0,0
1564665794531.25,-495.47,0,0,0,0,0
1564665794546.88,-549.22,0,0,0,0,0
1564665794562.5,-589.91,0,0,0,0,0
1564665794578.13,-610.11,0,0,0,0,0
1564665794593.75,-606.24,0,0,0,0,0
1564665794609.38,-580.03,0,0,0,0,0
1564665794625,-537.86,0,0,0,0,0
1564665794640.63,-488.17,0,0,0,0,0
1564665794656.25,-438.47,0,0,0,0,0
1564665794671.88,-393.28,0,0,0,0,0
1564665794687.5,-353.98,0,0,0,0,0
1564665794703.13,-320.09,0,0,0,0,0
1564665794718.75,-290.97,0,0,0,0,0
1564665794734.38,-266.73,0,0,0,0,0
1564665794750,-247.93,0,0,0,0,0
1564665794765.63,-234.71,0,0,0,0,0
1564665794781.25,-226.04,0,0,0,0,0
1564665794796.88,-219.92,0,0,0,0,0
1564665794812.5,-214.11,0,0,0,0,0
1564665794828.13,-207.21,0,0,0,0,0
1564665794843.75,-199.06,0,0,0,0,0
1564665794859.38,-190.65,0,0,0,0,0
1564665794875,-183.37,0,0,0,0,0
1564665794890.63,-178.15,0,0,0,0,0
1564665794906.25,-174.95,0,0,0,0,0
1564665794921.88,-172.71,0,0,0,0,0
1564665794937.5,-169.86,0,0,0,0,0
1564665794953.13,-165.02,0,0,0,0,0
1564665794968.75,-157.51,0,0,0,0,0
1564665794984.38,-147.59,0,0,0,0,0
1564665795000,-136.23,0,0,0,0,0
1564665795015.63,-124.63,0,0,0,0,0
1564665795031.25,-113.6,0,0,0,0,0
1564665795046.88,-103.39,0,0,0,0,0
1564665795062.5,-93.52,0,0,0,0,0
1564665795078.13,-83.3,0,0,0,0,0
1564665795093.75,-72.06,0,0,0,0,0
1564665795109.38,-59.6,0,0,0,0,0
1564665795125,-46.18,0,0,0,0,0
1564665795140.63,-32.39,0,0,0,0,0
1564665795156.25,-18.91,0,0,0,0,0
1564665795171.88,-6.18,0,0,0,0,0
1564665795187.5,5.66,0,0,0,0,0
1564665795203.13,16.76,0,0,0,0,0
1564665795218.75,27.34,0,0,0,0,0
1564665795234.38,37.54,0,0,0,0,0
1564665795250,47.35,0,0,0,0,0
1564665795265.63,56.61,0,0,0,0,0
1564665795281.25,65.2,0,0,0,0,0
1564665795296.88,73.1,0,0,0,0,0
1564665795312.5,80.41,0,0,0,0,0
1564665795328.13,87.33,0,0,0,0,0
1564665795343.75,94.07,0,0,0,0,0
1564665795359.38,100.67,0,0,0,0,0
1564665795375,107.07,0,0,0,0,0
1564665795390.63,113.16,0,0,0,0,0
1564665795406.25,118.92,0,0,0,0,0
1564665795421.88,124.52,0,0,0,0,0
1564665795437.5,130.29,0,0,0,0,0
1564665795453.13,136.61,0,0,0,0,0
1564665795468.75,143.73,0,0,0,0,0
1564665795484.38,151.68,0,0,0,0,0
1564665795500,160.26,0,0,0,0,0
1564665795515.63,169.17,0,0,0,0,0
1564665795531.25,178.14,0,0,0,0,0
1564665795546.88,187.1,0,0,0,0,0
1564665795562.5,196.11,0,0,0,0,0
1564665795578.13,205.3,0,0,0,0,0
1564665795593.75,214.8,0,0,0,0,0
1564665795609.38,224.79,0,0,0,0,0
1564665795625,235.73,0,0,0,0,0
1564665795640.63,248.33,0,0,0,0,0
1564665795656.25,263.16,0,0,0,0,0
1564665795671.88,280.07,0,0,0,0,0
1564665795687.5,297.49,0,0,0,0,0
1564665795703.13,312.49,0,0,0,0,0
1564665795718.75,321.31,0,0,0,0,0
1564665795734.38,320.77,0,0,0,0,0
1564665795750,309.48,0,0,0,0,0
1564665795765.63,288.38,0,0,0,0,0
1564665795781.25,260.41,0,0,0,0,0
1564665795796.88,229.17,0,0,0,0,0
1564665795812.5,197.65,0,0,0,0,0
1564665795828.13,167.38,0,0,0,0,0
1564665795843.75,138.5,0,0,0,0,0
1564665795859.38,110.46,0,0,0,0,0
1564665795875,82.67,0,0,0,0,0
1564665795890.63,54.7,0,0,0,0,0
1564665795906.25,25.97,0,0,0,0,0
1564665795921.88,-4.52,0,0,0,0,0
1564665795937.5,-37.89,0,0,0,0,0
1564665795953.13,-74.55,0,0,0,0,0
1564665795968.75,-113.23,0,0,0,0,0
1564665795984.38,-150.69,0,0,0,0,0
1564665796000,-182.48,0,0,0,0,0
1564665796015.63,-204.56,0,0,0,0,0
1564665796031.25,-215.06,0,0,0,0,0
1564665796046.88,-214.88,0,0,0,0,0
1564665796062.5,-207.3,0,0,0,0,0
1564665796078.13,-196.27,0,0,0,0,0
1564665796093.75,-184.76,0,0,0,0,0
1564665796109.38,-173.87,0,0,0,0,0
1564665796125,-163.07,0,0,0,0,0
1564665796140.63,-151.17,0,0,0,0,0
1564665796156.25,-137.32,0,0,0,0,0
1564665796171.88,-121.36,0,0,0,0,0
1564665796187.5,-103.54,0,0,0,0,0
1564665796203.13,-83.87,0,0,0,0,0
1564665796218.75,-61.79,0,0,0,0,0
1564665796234.38,-36.15,0,0,0,0,0
1564665796250,-5.89,0,0,0,0,0
1564665796265.63,29.54,0,0,0,0,0
1564665796281.25,69.99,0,0,0,0,0
1564665796296.88,114.58,0,0,0,0,0
1564665796312.5,162.01,0,0,0,0,0
1564665796328.13,210.51,0,0,0,0,0
1564665796343.75,257.9,0,0,0,0,0
1564665796359.38,301.92,0,0,0,0,0
1564665796375,340.95,0,0,0,0,0
1564665796390.63,374.72,0,0,0,0,0
1564665796406.25,404.69,0,0,0,0,0
1564665796421.88,433.22,0,0,0,0,0
1564665796437.5,461.95,0,0,0,0,0
1564665796453.13,490.22,0,0,0,0,0
1564665796468.75,514.28,0,0,0,0,0
1564665796484.38,528.21,0,0,0,0,0
1564665796500,526.11,0,0,0,0,0
1564665796515.63,504.47,0,0,0,0,0
1564665796531.25,463.26,0,0,0,0,0
1564665796546.88,405.67,0,0,0,0,0
1564665796562.5,336.72,0,0,0,0,0
1564665796578.13,261.97,0,0,0,0,0
1564665796593.75,187.03,0,0,0,0,0
1564665796609.38,117.66,0,0,0,0,0
1564665796625,59.7,0,0,0,0,0
1564665796640.63,18.08,0,0,0,0,0
1564665796656.25,-4.69,0,0,0,0,0
1564665796671.88,-9.81,0,0,0,0,0
1564665796687.5,-2.02,0,0,0,0,0
1564665796703.13,11.9,0,0,0,0,0
1564665796718.75,25.52,0,0,0,0,0
1564665796734.38,34.71,0,0,0,0,0
1564665796750,38.27,0,0,0,0,0
1564665796765.63,37.16,0,0,0,0,0
1564665796781.25,33.16,0,0,0,0,0
1564665796796.88,27.69,0,0,0,0,0
1564665796812.5,21.41,0,0,0,0,0
1564665796828.13,14.63,0,0,0,0,0
1564665796843.75,7.65,0,0,0,0,0
1564665796859.38,1.02,0,0,0,0,0
1564665796875,-4.75,0,0,0,0,0
1564665796890.63,-9.43,0,0,0,0,0
1564665796906.25,-13.17,0,0,0,0,0
1564665796921.88,-16.43,0,0,0,0,0
1564665796937.5,-19.63,0,0,0,0,0
1564665796953.13,-22.93,0,0,0,0,0
1564665796968.75,-26.22,0,0,0,0,0
1564665796984.38,-29.13,0,0,0,0,0
1564665797000,-31.25,0,0,0,0,0
1564665797015.63,-32.26,0,0,0,0,0
1564665797031.25,-31.99,0,0,0,0,0
1564665797046.88,-30.5,0,0,0,0,0
1564665797062.5,-28.05,0,0,0,0,0
1564665797078.13,-25.03,0,0,0,0,0
1564665797093.75,-21.7,0,0,0,0,0
1564665797109.38,-18.01,0,0,0,0,0
1564665797125,-13.48,0,0,0,0,0
1564665797140.63,-7.3,0,0,0,0,0
1564665797156.25,1.24,0,0,0,0,0
1564665797171.88,12.29,0,0,0,0,0
1564665797187.5,25.17,0,0,0,0,0
1564665797203.13,38.37,0,0,0,0,0
1564665797218.75,50.05,0,0,0,0,0
1564665797234.38,58.64,0,0,0,0,0
1564665797250,63.41,0,0,0,0,0
1564665797265.63,64.47,0,0,0,0,0
1564665797281.25,62.55,0,0,0,0,0
1564665797296.88,58.6,0,0,0,0,0
1564665797312.5,53.37,0,0,0,0,0
1564665797328.13,47.51,0,0,0,0,0
1564665797343.75,41.72,0,0,0,0,0
1564665797359.38,36.83,0,0,0,0,0
1564665797375,33.5,0,0,0,0,0
1564665797390.63,31.8,0,0,0,0,0
1564665797406.25,30.8,0,0,0,0,0
1564665797421.88,28.65,0,0,0,0,0
1564665797437.5,23.25,0,0,0,0,0
1564665797453.13,13.22,0,0,0,0,0
1564665797468.75,-1.37,0,0,0,0,0
1564665797484.38,-18.95,0,0,0,0,0
1564665797500,-37,0,0,0,0,0
1564665797515.63,-53.01,0,0,0,0,0
1564665797531.25,-65.22,0,0,0,0,0
1564665797546.88,-73.02,0,0,0,0,0
1564665797562.5,-76.73,0,0,0,0,0
1564665797578.13,-77.27,0,0,0,0,0
1564665797593.75,-75.81,0,0,0,0,0
1564665797609.38,-73.72,0,0,0,0,0
1564665797625,-72.47,0,0,0,0,0
1564665797640.63,-73.4,0,0,0,0,0
1564665797656.25,-77.38,0,0,0,0,0
1564665797671.88,-84.41,0,0,0,0,0
1564665797687.5,-93.57,0,0,0,0,0
1564665797703.13,-103.3,0,0,0,0,0
1564665797718.75,-111.92,0,0,0,0,0
1564665797734.38,-118.3,0,0,0,0,0
1564665797750,-122.14,0,0,0,0,0
1564665797765.63,-123.96,0,0,0,0,0
1564665797781.25,-124.79,0,0,0,0,0
1564665797796.88,-125.76,0,0,0,0,0
1564665797812.5,-127.54,0,0,0,0,0
1564665797828.13,-130.1,0,0,0,0,0
1564665797843.75,-132.49,0,0,0,0,0
1564665797859.38,-133.05,0,0,0,0,0
1564665797875,-129.86,0,0,0,0,0
1564665797890.63,-121.48,0,0,0,0,0
1564665797906.25,-107.56,0,0,0,0,0
1564665797921.88,-89,0,0,0,0,0
1564665797937.5,-67.81,0,0,0,0,0
1564665797953.13,-46.42,0,0,0,0,0
1564665797968.75,-27.02,0,0,0,0,0
1564665797984.38,-11.07,0,0,0,0,0
1564665798000,0.81,0,0,0,0,0
1564665798015.63,8.65,0,0,0,0,0
1564665798031.25,12.93,0,0,0,0,0
1564665798046.88,14.34,0,0,0,0,0
1564665798062.5,13.72,0,0,0,0,0
1564665798078.13,11.98,0,0,0,0,0
1564665798093.75,9.99,0,0,0,0,0
1564665798109.38,8.48,0,0,0,0,0
1564665798125,7.92,0,0,0,0,0
1564665798140.63,8.54,0,0,0,0,0
1564665798156.25,10.43,0,0,0,0,0
1564665798171.88,13.66,0,0,0,0,0
1564665798187.5,18.29,0,0,0,0,0
1564665798203.13,24.23,0,0,0,0,0
1564665798218.75,31.2,0,0,0,0,0
1564665798234.38,38.58,0,0,0,0,0
1564665798250,45.55,0,0,0,0,0
1564665798265.63,51.27,0,0,0,0,0
1564665798281.25,55.14,0,0,0,0,0
1564665798296.88,56.96,0,0,0,0,0
1564665798312.5,56.94,0,0,0,0,0
1564665798328.13,55.54,0,0,0,0,0
1564665798343.75,53.31,0,0,0,0,0
1564665798359.38,50.68,0,0,0,0,0
1564665798375,47.9,0,0,0,0,0
1564665798390.63,45.04,0,0,0,0,0
1564665798406.25,42.02,0,0,0,0,0
1564665798421.88,38.67,0,0,0,0,0
1564665798437.5,34.84,0,0,0,0,0
1564665798453.13,30.42,0,0,0,0,0
1564665798468.75,25.46,0,0,0,0,0
1564665798484.38,20.32,0,0,0,0,0
1564665798500,15.68,0,0,0,0,0
1564665798515.63,12.5,0,0,0,0,0
1564665798531.25,11.74,0,0,0,0,0
1564665798546.88,13.91,0,0,0,0,0
1564665798562.5,18.74,0,0,0,0,0
1564665798578.13,25,0,0,0,0,0
1564665798593.75,30.68,0,0,0,0,0
1564665798609.38,33.67,0,0,0,0,0
1564665798625,32.49,0,0,0,0,0
1564665798640.63,26.95,0,0,0,0,0
1564665798656.25,18.29,0,0,0,0,0
1564665798671.88,8.81,0,0,0,0,0
1564665798687.5,1,0,0,0,0,0
1564665798703.13,-3.23,0,0,0,0,0
1564665798718.75,-3.12,0,0,0,0,0
1564665798734.38,0.92,0,0,0,0,0
1564665798750,7.78,0,0,0,0,0
1564665798765.63,16.05,0,0,0,0,0
1564665798781.25,24.52,0,0,0,0,0
1564665798796.88,32.26,0,0,0,0,0
1564665798812.5,38.54,0,0,0,0,0
1564665798828.13,42.79,0,0,0,0,0
1564665798843.75,44.61,0,0,0,0,0
1564665798859.38,43.87,0,0,0,0,0
1564665798875,40.86,0,0,0,0,0
1564665798890.63,36.25,0,0,0,0,0
1564665798906.25,30.94,0,0,0,0,0
1564665798921.88,25.81,0,0,0,0,0
1564665798937.5,21.55,0,0,0,0,0
1564665798953.13,18.51,0,0,0,0,0
1564665798968.75,16.79,0,0,0,0,0
1564665798984.38,16.21,0,0,0,0,0
1564665799000,16.52,0,0,0,0,0
1564665799015.63,17.33,0,0,0,0,0
1564665799031.25,18.32,0,0,0,0,0
1564665799046.88,19.17,0,0,0,0,0
1564665799062.5,19.67,0,0,0,0,0
1564665799078.13,19.69,0,0,0,0,0
1564665799093.75,19.24,0,0,0,0,0
1564665799109.38,18.32,0,0,0,0,0
1564665799125,16.98,0,0,0,0,0
1564665799140.63,15.22,0,0,0,0,0
1564665799156.25,13.02,0,0,0,0,0
1564665799171.88,10.38,0,0,0,0,0
1564665799187.5,7.32,0,0,0,0,0
1564665799203.13,3.95,0,0,0,0,0
1564665799218.75,0.5,0,0,0,0,0
1564665799234.38,-2.85,0,0,0,0,0
1564665799250,-5.93,0,0,0,0,0
1564665799265.63,-8.68,0,0,0,0,0
1564665799281.25,-11.2,0,0,0,0,0
1564665799296.88,-13.67,0,0,0,0,0
1564665799312.5,-16.34,0,0,0,0,0
1564665799328.13,-19.46,0,0,0,0,0
1564665799343.75,-23.25,0,0,0,0,0
1564665799359.38,-27.9,0,0,0,0,0
1564665799375,-33.51,0,0,0,0,0
1564665799390.63,-39.95,0,0,0,0,0
1564665799406.25,-46.73,0,0,0,0,0
1564665799421.88,-52.98,0,0,0,0,0
1564665799437.5,-57.52,0,0,0,0,0
1564665799453.13,-59.19,0,0,0,0,0
1564665799468.75,-57.18,0,0,0,0,0
1564665799484.38,-51.36,0,0,0,0,0
1564665799500,-42.31,0,0,0,0,0
1564665799515.63,-31.17,0,0,0,0,0
1564665799531.25,-19.26,0,0,0,0,0
1564665799546.88,-7.8,0,0,0,0,0
1564665799562.5,2.46,0,0,0,0,0
1564665799578.13,11.11,0,0,0,0,0
1564665799593.75,18.08,0,0,0,0,0
1564665799609.38,23.37,0,0,0,0,0
1564665799625,27,0,0,0,0,0
1564665799640.63,28.99,0,0,0,0,0
1564665799656.25,29.43,0,0,0,0,0
1564665799671.88,28.51,0,0,0,0,0
1564665799687.5,26.52,0,0,0,0,0
1564665799703.13,23.79,0,0,0,0,0
1564665799718.75,20.69,0,0,0,0,0
1564665799734.38,17.45,0,0,0,0,0
1564665799750,14.28,0,0,0,0,0
1564665799765.63,11.3,0,0,0,0,0
1564665799781.25,8.59,0,0,0,0,0
1564665799796.88,6.21,0,0,0,0,0
1564665799812.5,4.17,0,0,0,0,0
1564665799828.13,2.42,0,0,0,0,0
1564665799843.75,0.89,0,0,0,0,0
1564665799859.38,-0.49,0,0,0,0,0
1564665799875,-1.8,0,0,0,0,0
1564665799890.63,-3.14,0,0,0,0,0
1564665799906.25,-4.57,0,0,0,0,0
1564665799921.88,-6.2,0,0,0,0,0
1564665799937.5,-8.19,0,0,0,0,0
1564665799953.13,-10.65,0,0,0,0,0
1564665799968.75,-13.69,0,0,0,0,0
1564665799984.38,-17.33,0,0,0,0,0
1564665800000,-21.46,0,0,0,0,0
1564665800015.63,-25.88,0,0,0,0,0
1564665800031.25,-30.35,0,0,0,0,0
1564665800046.88,-34.62,0,0,0,0,0
1564665800062.5,-38.57,0,0,0,0,0
1564665800078.13,-42.3,0,0,0,0,0
1564665800093.75,-46.11,0,0,0,0,0
1564665800109.38,-50.46,0,0,0,0,0
1564665800125,-55.74,0,0,0,0,0
1564665800140.63,-62.05,0,0,0,0,0
1564665800156.25,-68.91,0,0,0,0,0
1564665800171.88,-75.22,0,0,0,0,0
1564665800187.5,-79.33,0,0,0,0,0
1564665800203.13,-79.43,0,0,0,0,0
1564665800218.75,-74.02,0,0,0,0,0
1564665800234.38,-62.42,0,0,0,0,0
1564665800250,-45.08,0,0,0,0,0
1564665800265.63,-23.52,0,0,0,0,0
1564665800281.25,-0.08,0,0,0,0,0
1564665800296.88,22.7,0,0,0,0,0
1564665800312.5,42.65,0,0,0,0,0
1564665800328.13,58.36,0,0,0,0,0
1564665800343.75,69.37,0,0,0,0,0
1564665800359.38,75.93,0,0,0,0,0
1564665800375,78.83,0,0,0,0,0
1564665800390.63,78.95,0,0,0,0,0
1564665800406.25,77.2,0,0,0,0,0
1564665800421.88,74.32,0,0,0,0,0
1564665800437.5,70.99,0,0,0,0,0
1564665800453.13,67.8,0,0,0,0,0
1564665800468.75,65.17,0,0,0,0,0
1564665800484.38,63.29,0,0,0,0,0
1564665800500,62.08,0,0,0,0,0
1564665800515.63,61.2,0,0,0,0,0
1564665800531.25,60.21,0,0,0,0,0
1564665800546.88,58.7,0,0,0,0,0
1564665800562.5,56.46,0,0,0,0,0
1564665800578.13,53.63,0,0,0,0,0
1564665800593.75,50.76,0,0,0,0,0
1564665800609.38,48.62,0,0,0,0,0
1564665800625,48.01,0,0,0,0,0
1564665800640.63,49.34,0,0,0,0,0
1564665800656.25,52.42,0,0,0,0,0
1564665800671.88,56.3,0,0,0,0,0
1564665800687.5,59.47,0,0,0,0,0
1564665800703.13,60.26,0,0,0,0,0
1564665800718.75,57.32,0,0,0,0,0
1564665800734.38,49.99,0,0,0,0,0
1564665800750,38.33,0,0,0,0,0
1564665800765.63,23.05,0,0,0,0,0
1564665800781.25,5.21,0,0,0,0,0
1564665800796.88,-14.14,0,0,0,0,0
1564665800812.5,-34.11,0,0,0,0,0
1564665800828.13,-54.12,0,0,0,0,0
1564665800843.75,-73.83,0,0,0,0,0
1564665800859.38,-93.07,0,0,0,0,0
1564665800875,-111.77,0,0,0,0,0
1564665800890.63,-130,0,0,0,0,0
1564665800906.25,-148.11,0,0,0,0,0
1564665800921.88,-166.49,0,0,0,0,0
1564665800937.5,-185.27,0,0,0,0,0
1564665800953.13,-203.63,0,0,0,0,0
1564665800968.75,-219.41,0,0,0,0,0
1564665800984.38,-229.26,0,0,0,0,0
1564665801000,-229.49,0,0,0,0,0
1564665801015.63,-217.47,0,0,0,0,0
1564665801031.25,-192.83,0,0,0,0,0
1564665801046.88,-157.87,0,0,0,0,0
1564665801062.5,-116.9,0,0,0,0,0
1564665801078.13,-74.89,0,0,0,0,0
1564665801093.75,-35.89,0,0,0,0,0
1564665801109.38,-2.21,0,0,0,0,0
1564665801125,25.74,0,0,0,0,0
1564665801140.63,48.73,0,0,0,0,0
1564665801156.25,67.95,0,0,0,0,0
1564665801171.88,84.37,0,0,0,0,0
1564665801187.5,98.62,0,0,0,0,0
1564665801203.13,111.16,0,0,0,0,0
1564665801218.75,122.46,0,0,0,0,0
1564665801234.38,133.09,0,0,0,0,0
1564665801250,143.63,0,0,0,0,0
1564665801265.63,154.34,0,0,0,0,0
1564665801281.25,164.91,0,0,0,0,0
1564665801296.88,174.37,0,0,0,0,0
1564665801312.5,181.37,0,0,0,0,0
1564665801328.13,184.62,0,0,0,0,0
1564665801343.75,183.47,0,0,0,0,0
1564665801359.38,178.22,0,0,0,0,0
1564665801375,170.07,0,0,0,0,0
1564665801390.63,160.68,0,0,0,0,0
1564665801406.25,151.57,0,0,0,0,0
1564665801421.88,143.58,0,0,0,0,0
1564665801437.5,136.78,0,0,0,0,0
1564665801453.13,130.61,0,0,0,0,0
1564665801468.75,124.16,0,0,0,0,0
1564665801484.38,116.62,0,0,0,0,0
1564665801500,107.32,0,0,0,0,0
1564665801515.63,95.86,0,0,0,0,0
1564665801531.25,82.04,0,0,0,0,0
1564665801546.88,65.9,0,0,0,0,0
1564665801562.5,47.8,0,0,0,0,0
1564665801578.13,28.46,0,0,0,0,0
1564665801593.75,8.94,0,0,0,0,0
1564665801609.38,-9.7,0,0,0,0,0
1564665801625,-26.66,0,0,0,0,0
1564665801640.63,-41.69,0,0,0,0,0
1564665801656.25,-55.19,0,0,0,0,0
1564665801671.88,-68.08,0,0,0,0,0
1564665801687.5,-81.53,0,0,0,0,0
1564665801703.13,-96.43,0,0,0,0,0
1564665801718.75,-112.98,0,0,0,0,0
1564665801734.38,-130.28,0,0,0,0,0
1564665801750,-146.2,0,0,0,0,0
1564665801765.63,-157.86,0,0,0,0,0
1564665801781.25,-162.25,0,0,0,0,0
1564665801796.88,-157.32,0,0,0,0,0
1564665801812.5,-142.78,0,0,0,0,0
1564665801828.13,-120.37,0,0,0,0,0
1564665801843.75,-93.45,0,0,0,0,0
1564665801859.38,-66.02,0,0,0,0,0
1564665801875,-41.62,0,0,0,0,0
1564665801890.63,-22.45,0,0,0,0,0
1564665801906.25,-9.22,0,0,0,0,0
1564665801921.88,-1.41,0,0,0,0,0
1564665801937.5,2.06,0,0,0,0,0
1564665801953.13,2.38,0,0,0,0,0
1564665801968.75,0.5,0,0,0,0,0
1564665801984.38,-2.86,0,0,0,0,0
1564665802000,-7.12,0,0,0,0,0
1564665802015.63,-11.71,0,0,0,0,0
1564665802031.25,-16.17,0,0,0,0,0
1564665802046.88,-20.23,0,0,0,0,0
1564665802062.5,-23.9,0,0,0,0,0
1564665802078.13,-27.58,0,0,0,0,0
1564665802093.75,-32,0,0,0,0,0
1564665802109.38,-38.03,0,0,0,0,0
1564665802125,-46.29,0,0,0,0,0
1564665802140.63,-56.73,0,0,0,0,0
1564665802156.25,-68.26,0,0,0,0,0
1564665802171.88,-78.79,0,0,0,0,0
1564665802187.5,-85.67,0,0,0,0,0
1564665802203.13,-86.59,0,0,0,0,0
1564665802218.75,-80.38,0,0,0,0,0
1564665802234.38,-67.56,0,0,0,0,0
1564665802250,-50.1,0,0,0,0,0
1564665802265.63,-30.76,0,0,0,0,0
1564665802281.25,-11.97,0,0,0,0,0
1564665802296.88,4.85,0,0,0,0,0
1564665802312.5,19.56,0,0,0,0,0
1564665802328.13,32.97,0,0,0,0,0
1564665802343.75,46.07,0,0,0,0,0
1564665802359.38,59.53,0,0,0,0,0
1564665802375,73.29,0,0,0,0,0
1564665802390.63,86.65,0,0,0,0,0
1564665802406.25,98.49,0,0,0,0,0
1564665802421.88,107.59,0,0,0,0,0
1564665802437.5,112.92,0,0,0,0,0
1564665802453.13,113.89,0,0,0,0,0
1564665802468.75,110.49,0,0,0,0,0
1564665802484.38,103.57,0,0,0,0,0
1564665802500,94.83,0,0,0,0,0
1564665802515.63,86.64,0,0,0,0,0
1564665802531.25,81.65,0,0,0,0,0
1564665802546.88,82.05,0,0,0,0,0
1564665802562.5,88.94,0,0,0,0,0
1564665802578.13,101.92,0,0,0,0,0
1564665802593.75,119.15,0,0,0,0,0
1564665802609.38,137.88,0,0,0,0,0
1564665802625,155.42,0,0,0,0,0
1564665802640.63,169.9,0,0,0,0,0
1564665802656.25,180.8,0,0,0,0,0
1564665802671.88,188.85,0,0,0,0,0
1564665802687.5,195.47,0,0,0,0,0
1564665802703.13,201.93,0,0,0,0,0
1564665802718.75,208.85,0,0,0,0,0
1564665802734.38,215.92,0,0,0,0,0
1564665802750,222.31,0,0,0,0,0
1564665802765.63,227.35,0,0,0,0,0
1564665802781.25,231.01,0,0,0,0,0
1564665802796.88,233.97,0,0,0,0,0
1564665802812.5,237.12,0,0,0,0,0
1564665802828.13,240.7,0,0,0,0,0
1564665802843.75,243.67,0,0,0,0,0
1564665802859.38,243.75,0,0,0,0,0
1564665802875,238.09,0,0,0,0,0
1564665802890.63,224.4,0,0,0,0,0
1564665802906.25,201.9,0,0,0,0,0
1564665802921.88,171.64,0,0,0,0,0
1564665802937.5,136.04,0,0,0,0,0
1564665802953.13,98.13,0,0,0,0,0
1564665802968.75,60.65,0,0,0,0,0
1564665802984.38,25.62,0,0,0,0,0
1564665803000,-5.72,0,0,0,0,0
1564665803015.63,-32.62,0,0,0,0,0
1564665803031.25,-54.66,0,0,0,0,0
1564665803046.88,-71.65,0,0,0,0,0
1564665803062.5,-83.82,0,0,0,0,0
1564665803078.13,-91.89,0,0,0,0,0
1564665803093.75,-97.13,0,0,0,0,0
1564665803109.38,-101.17,0,0,0,0,0
1564665803125,-105.52,0,0,0,0,0
1564665803140.63,-111.11,0,0,0,0,0
1564665803156.25,-117.91,0,0,0,0,0
1564665803171.88,-124.94,0,0,0,0,0
1564665803187.5,-130.6,0,0,0,0,0
1564665803203.13,-133.39,0,0,0,0,0
1564665803218.75,-132.56,0,0,0,0,0
1564665803234.38,-128.44,0,0,0,0,0
1564665803250,-122.23,0,0,0,0,0
1564665803265.63,-115.4,0,0,0,0,0
1564665803281.25,-108.98,0,0,0,0,0
1564665803296.88,-103.18,0,0,0,0,0
1564665803312.5,-97.45,0,0,0,0,0
1564665803328.13,-90.97,0,0,0,0,0
1564665803343.75,-83.15,0,0,0,0,0
1564665803359.38,-74.05,0,0,0,0,0
1564665803375,-64.29,0,0,0,0,0
1564665803390.63,-54.79,0,0,0,0,0
1564665803406.25,-46.54,0,0,0,0,0
1564665803421.88,-40.37,0,0,0,0,0
1564665803437.5,-37.11,0,0,0,0,0
1564665803453.13,-37.49,0,0,0,0,0
1564665803468.75,-41.95,0,0,0,0,0
1564665803484.38,-50.33,0,0,0,0,0
1564665803500,-61.63,0,0,0,0,0
1564665803515.63,-74.05,0,0,0,0,0
1564665803531.25,-85.64,0,0,0,0,0
1564665803546.88,-95.02,0,0,0,0,0
1564665803562.5,-101.99,0,0,0,0,0
1564665803578.13,-107.53,0,0,0,0,0
1564665803593.75,-113.19,0,0,0,0,0
1564665803609.38,-120.18,0,0,0,0,0
1564665803625,-128.76,0,0,0,0,0
1564665803640.63,-138.03,0,0,0,0,0
1564665803656.25,-146.45,0,0,0,0,0
1564665803671.88,-152.48,0,0,0,0,0
1564665803687.5,-155.24,0,0,0,0,0
1564665803703.13,-154.64,0,0,0,0,0
1564665803718.75,-151.29,0,0,0,0,0
1564665803734.38,-146.07,0,0,0,0,0
1564665803750,-139.88,0,0,0,0,0
1564665803765.63,-133.46,0,0,0,0,0
1564665803781.25,-127.28,0,0,0,0,0
1564665803796.88,-121.6,0,0,0,0,0
1564665803812.5,-116.42,0,0,0,0,0
1564665803828.13,-111.56,0,0,0,0,0
1564665803843.75,-106.75,0,0,0,0,0
1564665803859.38,-101.72,0,0,0,0,0
1564665803875,-96.27,0,0,0,0,0
1564665803890.63,-90.32,0,0,0,0,0
1564665803906.25,-83.82,0,0,0,0,0
1564665803921.88,-76.79,0,0,0,0,0
1564665803937.5,-69.3,0,0,0,0,0
1564665803953.13,-61.53,0,0,0,0,0
1564665803968.75,-53.77,0,0,0,0,0
1564665803984.38,-46.41,0,0,0,0,0
1564665804000,-39.82,0,0,0,0,0
1564665804015.63,-34.24,0,0,0,0,0
1564665804031.25,-29.66,0,0,0,0,0
1564665804046.88,-25.79,0,0,0,0,0
1564665804062.5,-22.2,0,0,0,0,0
1564665804078.13,-18.45,0,0,0,0,0
1564665804093.75,-14.32,0,0,0,0,0
1564665804109.38,-9.86,0,0,0,0,0
1564665804125,-5.3,0,0,0,0,0
1564665804140.63,-0.98,0,0,0,0,0
1564665804156.25,2.89,0,0,0,0,0
1564665804171.88,6.22,0,0,0,0,0
1564665804187.5,9.03,0,0,0,0,0
1564665804203.13,11.32,0,0,0,0,0
1564665804218.75,13.08,0,0,0,0,0
1564665804234.38,14.23,0,0,0,0,0
1564665804250,14.68,0,0,0,0,0
1564665804265.63,14.42,0,0,0,0,0
1564665804281.25,13.51,0,0,0,0,0
1564665804296.88,12.16,0,0,0,0,0
1564665804312.5,10.67,0,0,0,0,0
1564665804328.13,9.45,0,0,0,0,0
1564665804343.75,8.84,0,0,0,0,0
1564665804359.38,9.03,0,0,0,0,0
1564665804375,10,0,0,0,0,0
1564665804390.63,11.43,0,0,0,0,0
1564665804406.25,12.75,0,0,0,0,0
1564665804421.88,13.26,0,0,0,0,0
1564665804437.5,12.33,0,0,0,0,0
1564665804453.13,9.66,0,0,0,0,0
1564665804468.75,5.33,0,0,0,0,0
1564665804484.38,-0.2,0,0,0,0,0
1564665804500,-6.22,0,0,0,0,0
1564665804515.63,-11.99,0,0,0,0,0
1564665804531.25,-16.98,0,0,0,0,0
1564665804546.88,-20.95,0,0,0,0,0
1564665804562.5,-23.97,0,0,0,0,0
1564665804578.13,-26.35,0,0,0,0,0
1564665804593.75,-28.42,0,0,0,0,0
1564665804609.38,-30.52,0,0,0,0,0
1564665804625,-32.94,0,0,0,0,0
1564665804640.63,-35.94,0,0,0,0,0
1564665804656.25,-39.72,0,0,0,0,0
1564665804671.88,-44.27,0,0,0,0,0
1564665804687.5,-49.28,0,0,0,0,0
1564665804703.13,-54.03,0,0,0,0,0
1564665804718.75,-57.51,0,0,0,0,0
1564665804734.38,-58.7,0,0,0,0,0
1564665804750,-56.99,0,0,0,0,0
1564665804765.63,-52.3,0,0,0,0,0
1564665804781.25,-45.21,0,0,0,0,0
1564665804796.88,-36.61,0,0,0,0,0
1564665804812.5,-27.42,0,0,0,0,0
1564665804828.13,-18.26,0,0,0,0,0
1564665804843.75,-9.48,0,0,0,0,0
1564665804859.38,-1.26,0,0,0,0,0
1564665804875,6.21,0,0,0,0,0
1564665804890.63,12.6,0,0,0,0,0
1564665804906.25,17.55,0,0,0,0,0
1564665804921.88,20.91,0,0,0,0,0
1564665804937.5,22.9,0,0,0,0,0
1564665804953.13,24.15,0,0,0,0,0
1564665804968.75,25.45,0,0,0,0,0
1564665804984.38,27.46,0,0,0,0,0
1564665805000,30.41,0,0,0,0,0
1564665805015.63,34.09,0,0,0,0,0
1564665805031.25,37.96,0,0,0,0,0
1564665805046.88,41.4,0,0,0,0,0
1564665805062.5,44,0,0,0,0,0
1564665805078.13,45.66,0,0,0,0,0
1564665805093.75,46.46,0,0,0,0,0
1564665805109.38,46.58,0,0,0,0,0
1564665805125,46.11,0,0,0,0,0
1564665805140.63,44.96,0,0,0,0,0
1564665805156.25,42.92,0,0,0,0,0
1564665805171.88,39.77,0,0,0,0,0
1564665805187.5,35.49,0,0,0,0,0
1564665805203.13,30.29,0,0,0,0,0
1564665805218.75,24.65,0,0,0,0,0
1564665805234.38,19.15,0,0,0,0,0
1564665805250,14.31,0,0,0,0,0
1564665805265.63,10.39,0,0,0,0,0
1564665805281.25,7.35,0,0,0,0,0
1564665805296.88,4.88,0,0,0,0,0
1564665805312.5,2.54,0,0,0,0,0
1564665805328.13,-0.09,0,0,0,0,0
1564665805343.75,-3.34,0,0,0,0,0
1564665805359.38,-7.38,0,0,0,0,0
1564665805375,-12.27,0,0,0,0,0
1564665805390.63,-17.91,0,0,0,0,0
1564665805406.25,-24.04,0,0,0,0,0
1564665805421.88,-30.22,0,0,0,0,0
1564665805437.5,-35.88,0,0,0,0,0
1564665805453.13,-40.43,0,0,0,0,0
1564665805468.75,-43.33,0,0,0,0,0
1564665805484.38,-44.27,0,0,0,0,0
1564665805500,-43.11,0,0,0,0,0
1564665805515.63,-39.94,0,0,0,0,0
1564665805531.25,-35.01,0,0,0,0,0
1564665805546.88,-28.7,0,0,0,0,0
1564665805562.5,-21.42,0,0,0,0,0
1564665805578.13,-13.63,0,0,0,0,0
1564665805593.75,-5.78,0,0,0,0,0
1564665805609.38,1.72,0,0,0,0,0
1564665805625,8.55,0,0,0,0,0
1564665805640.63,14.51,0,0,0,0,0
1564665805656.25,19.53,0,0,0,0,0
1564665805671.88,23.65,0,0,0,0,0
1564665805687.5,27.01,0,0,0,0,0
1564665805703.13,29.82,0,0,0,0,0
1564665805718.75,32.29,0,0,0,0,0
1564665805734.38,34.58,0,0,0,0,0
1564665805750,36.83,0,0,0,0,0
1564665805765.63,39.04,0,0,0,0,0
1564665805781.25,41.23,0,0,0,0,0
1564665805796.88,43.34,0,0,0,0,0
1564665805812.5,45.43,0,0,0,0,0
1564665805828.13,47.62,0,0,0,0,0
1564665805843.75,50.18,0,0,0,0,0
1564665805859.38,53.46,0,0,0,0,0
1564665805875,57.73,0,0,0,0,0
1564665805890.63,63.1,0,0,0,0,0
1564665805906.25,69.29,0,0,0,0,0
1564665805921.88,75.64,0,0,0,0,0
1564665805937.5,81.12,0,0,0,0,0
1564665805953.13,84.54,0,0,0,0,0
1564665805968.75,84.81,0,0,0,0,0
1564665805984.38,81.23,0,0,0,0,0
1564665806000,73.65,0,0,0,0,0
1564665806015.63,62.5,0,0,0,0,0
1564665806031.25,48.68,0,0,0,0,0
1564665806046.88,33.34,0,0,0,0,0
1564665806062.5,17.7,0,0,0,0,0
1564665806078.13,2.8,0,0,0,0,0
1564665806093.75,-10.56,0,0,0,0,0
1564665806109.38,-21.88,0,0,0,0,0
1564665806125,-30.96,0,0,0,0,0
1564665806140.63,-37.95,0,0,0,0,0
1564665806156.25,-43.15,0,0,0,0,0
1564665806171.88,-46.86,0,0,0,0,0
1564665806187.5,-49.05,0,0,0,0,0
1564665806203.13,-49.11,0,0,0,0,0
1564665806218.75,-45.95,0,0,0,0,0
1564665806234.38,-38.41,0,0,0,0,0
1564665806250,-25.96,0,0,0,0,0
1564665806265.63,-9.18,0,0,0,0,0
1564665806281.25,10.1,0,0,0,0,0
1564665806296.88,29.14,0,0,0,0,0
1564665806312.5,45.17,0,0,0,0,0
1564665806328.13,56.22,0,0,0,0,0
1564665806343.75,61.66,0,0,0,0,0
1564665806359.38,62.2,0,0,0,0,0
1564665806375,59.33,0,0,0,0,0
1564665806390.63,54.5,0,0,0,0,0
1564665806406.25,48.6,0,0,0,0,0
1564665806421.88,41.79,0,0,0,0,0
1564665806437.5,33.78,0,0,0,0,0
1564665806453.13,24.34,0,0,0,0,0
1564665806468.75,13.68,0,0,0,0,0
1564665806484.38,2.59,0,0,0,0,0
1564665806500,-7.84,0,0,0,0,0
1564665806515.63,-16.64,0,0,0,0,0
1564665806531.25,-23.3,0,0,0,0,0
1564665806546.88,-27.91,0,0,0,0,0
1564665806562.5,-30.98,0,0,0,0,0
1564665806578.13,-33.15,0,0,0,0,0
1564665806593.75,-35.06,0,0,0,0,0
1564665806609.38,-37.34,0,0,0,0,0
1564665806625,-40.64,0,0,0,0,0
1564665806640.63,-45.56,0,0,0,0,0
1564665806656.25,-52.25,0,0,0,0,0
1564665806671.88,-60.02,0,0,0,0,0
1564665806687.5,-67.08,0,0,0,0,0
1564665806703.13,-70.99,0,0,0,0,0
1564665806718.75,-69.39,0,0,0,0,0
1564665806734.38,-60.96,0,0,0,0,0
1564665806750,-46.16,0,0,0,0,0
1564665806765.63,-27.16,0,0,0,0,0
1564665806781.25,-7.13,0,0,0,0,0
1564665806796.88,10.84,0,0,0,0,0
1564665806812.5,24.64,0,0,0,0,0
1564665806828.13,33.64,0,0,0,0,0
1564665806843.75,38.4,0,0,0,0,0
1564665806859.38,40.21,0,0,0,0,0
1564665806875,40.53,0,0,0,0,0
1564665806890.63,40.45,0,0,0,0,0
1564665806906.25,40.65,0,0,0,0,0
1564665806921.88,41.31,0,0,0,0,0
1564665806937.5,42.14,0,0,0,0,0
1564665806953.13,42.41,0,0,0,0,0
1564665806968.75,41.06,0,0,0,0,0
1564665806984.38,37.03,0,0,0,0,0
1564665807000,29.59,0,0,0,0,0
1564665807015.63,18.78,0,0,0,0,0
1564665807031.25,5.38,0,0,0,0,0
1564665807046.88,-9.33,0,0,0,0,0
1564665807062.5,-24.14,0,0,0,0,0
1564665807078.13,-38.36,0,0,0,0,0
1564665807093.75,-51.95,0,0,0,0,0
1564665807109.38,-65.25,0,0,0,0,0
1564665807125,-78.5,0,0,0,0,0
1564665807140.63,-91.54,0,0,0,0,0
1564665807156.25,-103.73,0,0,0,0,0
1564665807171.88,-114.19,0,0,0,0,0
1564665807187.5,-122.1,0,0,0,0,0
1564665807203.13,-126.96,0,0,0,0,0
1564665807218.75,-128.65,0,0,0,0,0
1564665807234.38,-127.28,0,0,0,0,0
1564665807250,-123.16,0,0,0,0,0
1564665807265.63,-116.69,0,0,0,0,0
1564665807281.25,-108.39,0,0,0,0,0
1564665807296.88,-98.85,0,0,0,0,0
1564665807312.5,-88.7,0,0,0,0,0
1564665807328.13,-78.53,0,0,0,0,0
1564665807343.75,-68.84,0,0,0,0,0
1564665807359.38,-59.95,0,0,0,0,0
1564665807375,-51.91,0,0,0,0,0
1564665807390.63,-44.51,0,0,0,0,0
1564665807406.25,-37.31,0,0,0,0,0
1564665807421.88,-29.72,0,0,0,0,0
1564665807437.5,-21.38,0,0,0,0,0
1564665807453.13,-12.3,0,0,0,0,0
1564665807468.75,-3.07,0,0,0,0,0
1564665807484.38,5.34,0,0,0,0,0
1564665807500,11.79,0,0,0,0,0
1564665807515.63,15.42,0,0,0,0,0
1564665807531.25,15.77,0,0,0,0,0
1564665807546.88,12.9,0,0,0,0,0
1564665807562.5,7.18,0,0,0,0,0
1564665807578.13,-0.77,0,0,0,0,0
1564665807593.75,-10.21,0,0,0,0,0
1564665807609.38,-20.33,0,0,0,0,0
1564665807625,-30.35,0,0,0,0,0
1564665807640.63,-39.6,0,0,0,0,0
1564665807656.25,-47.68,0,0,0,0,0
1564665807671.88,-54.52,0,0,0,0,0
1564665807687.5,-60.34,0,0,0,0,0
1564665807703.13,-65.5,0,0,0,0,0
1564665807718.75,-70.3,0,0,0,0,0
1564665807734.38,-74.82,0,0,0,0,0
1564665807750,-79.02,0,0,0,0,0
1564665807765.63,-82.75,0,0,0,0,0
1564665807781.25,-86.01,0,0,0,0,0
1564665807796.88,-89.01,0,0,0,0,0
1564665807812.5,-92.1,0,0,0,0,0
1564665807828.13,-95.69,0,0,0,0,0
1564665807843.75,-100.09,0,0,0,0,0
1564665807859.38,-105.44,0,0,0,0,0
1564665807875,-111.59,0,0,0,0,0
1564665807890.63,-118.2,0,0,0,0,0
1564665807906.25,-124.8,0,0,0,0,0
1564665807921.88,-130.87,0,0,0,0,0
1564665807937.5,-135.86,0,0,0,0,0
1564665807953.13,-139.35,0,0,0,0,0
1564665807968.75,-141.01,0,0,0,0,0
1564665807984.38,-140.55,0,0,0,0,0
1564665808000,-137.78,0,0,0,0,0
1564665808015.63,-132.45,0,0,0,0,0
1564665808031.25,-124.46,0,0,0,0,0
1564665808046.88,-113.9,0,0,0,0,0
1564665808062.5,-101.22,0,0,0,0,0
1564665808078.13,-87.3,0,0,0,0,0
1564665808093.75,-73.4,0,0,0,0,0
1564665808109.38,-60.83,0,0,0,0,0
1564665808125,-50.64,0,0,0,0,0
1564665808140.63,-43.35,0,0,0,0,0
1564665808156.25,-38.9,0,0,0,0,0
1564665808171.88,-36.78,0,0,0,0,0
1564665808187.5,-36.31,0,0,0,0,0
1564665808203.13,-36.96,0,0,0,0,0
1564665808218.75,-38.51,0,0,0,0,0
1564665808234.38,-41.09,0,0,0,0,0
1564665808250,-45.11,0,0,0,0,0
1564665808265.63,-51.11,0,0,0,0,0
1564665808281.25,-59.7,0,0,0,0,0
1564665808296.88,-71.28,0,0,0,0,0
1564665808312.5,-85.72,0,0,0,0,0
1564665808328.13,-101.84,0,0,0,0,0
1564665808343.75,-117.27,0,0,0,0,0
1564665808359.38,-128.74,0,0,0,0,0
1564665808375,-132.84,0,0,0,0,0
1564665808390.63,-127.07,0,0,0,0,0
1564665808406.25,-110.84,0,0,0,0,0
1564665808421.88,-85.72,0,0,0,0,0
1564665808437.5,-54.93,0,0,0,0,0
1564665808453.13,-22.26,0,0,0,0,0
1564665808468.75,9.11,0,0,0,0,0
1564665808484.38,37.24,0,0,0,0,0
1564665808500,61.44,0,0,0,0,0
1564665808515.63,81.85,0,0,0,0,0
1564665808531.25,98.8,0,0,0,0,0
1564665808546.88,112.47,0,0,0,0,0
1564665808562.5,122.87,0,0,0,0,0
1564665808578.13,130.03,0,0,0,0,0
1564665808593.75,134.2,0,0,0,0,0
1564665808609.38,135.95,0,0,0,0,0
1564665808625,135.98,0,0,0,0,0
1564665808640.63,135,0,0,0,0,0
1564665808656.25,133.47,0,0,0,0,0
1564665808671.88,131.57,0,0,0,0,0
1564665808687.5,129.28,0,0,0,0,0
1564665808703.13,126.5,0,0,0,0,0
1564665808718.75,123.27,0,0,0,0,0
1564665808734.38,119.78,0,0,0,0,0
1564665808750,116.32,0,0,0,0,0
1564665808765.63,113.21,0,0,0,0,0
1564665808781.25,110.52,0,0,0,0,0
1564665808796.88,108.03,0,0,0,0,0
1564665808812.5,105.15,0,0,0,0,0
1564665808828.13,101.08,0,0,0,0,0
1564665808843.75,95.09,0,0,0,0,0
1564665808859.38,86.73,0,0,0,0,0
1564665808875,76.09,0,0,0,0,0
1564665808890.63,63.76,0,0,0,0,0
1564665808906.25,50.68,0,0,0,0,0
1564665808921.88,37.84,0,0,0,0,0
1564665808937.5,25.98,0,0,0,0,0
1564665808953.13,15.38,0,0,0,0,0
1564665808968.75,5.83,0,0,0,0,0
1564665808984.38,-3.25,0,0,0,0,0
1564665809000,-12.7,0,0,0,0,0
1564665809015.63,-23.41,0,0,0,0,0
1564665809031.25,-36.11,0,0,0,0,0
1564665809046.88,-51.18,0,0,0,0,0
1564665809062.5,-68.28,0,0,0,0,0
1564665809078.13,-86.12,0,0,0,0,0
1564665809093.75,-102.43,0,0,0,0,0
1564665809109.38,-114.28,0,0,0,0,0
1564665809125,-118.85,0,0,0,0,0
1564665809140.63,-114.19,0,0,0,0,0
1564665809156.25,-99.96,0,0,0,0,0
1564665809171.88,-77.61,0,0,0,0,0
1564665809187.5,-49.97,0,0,0,0,0
1564665809203.13,-20.43,0,0,0,0,0
1564665809218.75,7.96,0,0,0,0,0
1564665809234.38,33.06,0,0,0,0,0
1564665809250,53.82,0,0,0,0,0
1564665809265.63,70.18,0,0,0,0,0
1564665809281.25,82.61,0,0,0,0,0
1564665809296.88,91.78,0,0,0,0,0
1564665809312.5,98.28,0,0,0,0,0
1564665809328.13,102.55,0,0,0,0,0
1564665809343.75,104.86,0,0,0,0,0
1564665809359.38,105.43,0,0,0,0,0
1564665809375,104.56,0,0,0,0,0
1564665809390.63,102.61,0,0,0,0,0
1564665809406.25,100.1,0,0,0,0,0
1564665809421.88,97.57,0,0,0,0,0
1564665809437.5,95.46,0,0,0,0,0
1564665809453.13,94.02,0,0,0,0,0
1564665809468.75,93.21,0,0,0,0,0
1564665809484.38,92.8,0,0,0,0,0
1564665809500,92.37,0,0,0,0,0
1564665809515.63,91.43,0,0,0,0,0
1564665809531.25,89.61,0,0,0,0,0
1564665809546.88,86.74,0,0,0,0,0
1564665809562.5,82.99,0,0,0,0,0
1564665809578.13,78.84,0,0,0,0,0
1564665809593.75,74.91,0,0,0,0,0
1564665809609.38,71.68,0,0,0,0,0
1564665809625,69.26,0,0,0,0,0
1564665809640.63,67.3,0,0,0,0,0
1564665809656.25,65.13,0,0,0,0,0
1564665809671.88,62.07,0,0,0,0,0
1564665809687.5,57.7,0,0,0,0,0
1564665809703.13,51.98,0,0,0,0,0
1564665809718.75,45.18,0,0,0,0,0
1564665809734.38,37.64,0,0,0,0,0
1564665809750,29.57,0,0,0,0,0
1564665809765.63,20.86,0,0,0,0,0
1564665809781.25,11.27,0,0,0,0,0
1564665809796.88,0.45,0,0,0,0,0
1564665809812.5,-11.88,0,0,0,0,0
1564665809828.13,-25.73,0,0,0,0,0
1564665809843.75,-40.77,0,0,0,0,0
1564665809859.38,-56.19,0,0,0,0,0
1564665809875,-70.51,0,0,0,0,0
1564665809890.63,-81.77,0,0,0,0,0
1564665809906.25,-87.96,0,0,0,0,0
1564665809921.88,-87.49,0,0,0,0,0
1564665809937.5,-79.94,0,0,0,0,0
1564665809953.13,-66.26,0,0,0,0,0
1564665809968.75,-48.72,0,0,0,0,0
1564665809984.38,-30.18,0,0,0,0,0
1564665810000,-13.26,0,0,0,0,0
1564665810015.63,0.38,0,0,0,0,0
1564665810031.25,10.32,0,0,0,0,0
1564665810046.88,17.02,0,0,0,0,0
1564665810062.5,21.38,0,0,0,0,0
1564665810078.13,24.07,0,0,0,0,0
1564665810093.75,25.31,0,0,0,0,0
1564665810109.38,24.91,0,0,0,0,0
1564665810125,22.62,0,0,0,0,0
1564665810140.63,18.44,0,0,0,0,0
1564665810156.25,12.79,0,0,0,0,0
1564665810171.88,6.46,0,0,0,0,0
1564665810187.5,0.45,0,0,0,0,0
1564665810203.13,-4.32,0,0,0,0,0
1564665810218.75,-7.21,0,0,0,0,0
1564665810234.38,-8.09,0,0,0,0,0
1564665810250,-7.48,0,0,0,0,0
1564665810265.63,-6.38,0,0,0,0,0
1564665810281.25,-6.11,0,0,0,0,0
1564665810296.88,-7.93,0,0,0,0,0
1564665810312.5,-12.6,0,0,0,0,0
1564665810328.13,-20.12,0,0,0,0,0
1564665810343.75,-29.61,0,0,0,0,0
1564665810359.38,-39.36,0,0,0,0,0
1564665810375,-47.25,0,0,0,0,0
1564665810390.63,-51.34,0,0,0,0,0
1564665810406.25,-50.69,0,0,0,0,0
1564665810421.88,-45.88,0,0,0,0,0
1564665810437.5,-39.27,0,0,0,0,0
1564665810453.13,-34.43,0,0,0,0,0
1564665810468.75,-35,0,0,0,0,0
1564665810484.38,-43.26,0,0,0,0,0
1564665810500,-59.06,0,0,0,0,0
1564665810515.63,-79.53,0,0,0,0,0
1564665810531.25,-99.86,0,0,0,0,0
1564665810546.88,-114.77,0,0,0,0,0
1564665810562.5,-120.23,0,0,0,0,0
1564665810578.13,-114.46,0,0,0,0,0
1564665810593.75,-98.21,0,0,0,0,0
1564665810609.38,-74.15,0,0,0,0,0
1564665810625,-45.75,0,0,0,0,0
1564665810640.63,-16.36,0,0,0,0,0
1564665810656.25,11.48,0,0,0,0,0
1564665810671.88,36.18,0,0,0,0,0
1564665810687.5,56.9,0,0,0,0,0
1564665810703.13,73.37,0,0,0,0,0
1564665810718.75,85.63,0,0,0,0,0
1564665810734.38,94.01,0,0,0,0,0
1564665810750,99.12,0,0,0,0,0
