Timestamp,BVP,Note,AGG,ED,SIB,Condition
1564503442000,-0,0,0,0,0,0
1564503442015.63,-0,0,0,0,0,0
1564503442031.25,-0,0,0,0,0,0
1564503442046.88,-0,0,0,0,0,0
1564503442062.5,-0,0,0,0,0,0
1564503442078.13,-0,0,0,0,0,0
1564503442093.75,-0,0,0,0,0,0
1564503442109.38,-0,0,0,0,0,0
1564503442125,-0,0,0,0,0,0
1564503442140.63,-0,0,0,0,0,0
1564503442156.25,0,0,0,0,0,0
1564503442171.88,0.01,0,0,0,0,0
1564503442187.5,0.01,0,0,0,0,0
1564503442203.13,-0,0,0,0,0,0
1564503442218.75,-0.03,0,0,0,0,0
1564503442234.38,-0.05,0,0,0,0,0
1564503442250,-0.05,0,0,0,0,0
1564503442265.63,0,0,0,0,0,0
1564503442281.25,0.13,0,0,0,0,0
1564503442296.88,0.36,0,0,0,0,0
1564503442312.5,0.66,0,0,0,0,0
1564503442328.13,1.01,0,0,0,0,0
1564503442343.75,1.37,0,0,0,0,0
1564503442359.38,1.72,0,0,0,0,0
1564503442375,2.06,0,0,0,0,0
1564503442390.63,2.4,0,0,0,0,0
1564503442406.25,2.79,0,0,0,0,0
1564503442421.88,3.24,0,0,0,0,0
1564503442437.5,3.8,0,0,0,0,0
1564503442453.13,4.42,0,0,0,0,0
1564503442468.75,5.06,0,0,0,0,0
1564503442484.38,5.66,0,0,0,0,0
1564503442500,6.2,0,0,0,0,0
1564503442515.63,6.68,0,0,0,0,0
1564503442531.25,7.15,0,0,0,0,0
1564503442546.88,7.68,0,0,0,0,0
1564503442562.5,8.31,0,0,0,0,0
1564503442578.13,9.14,0,0,0,0,0
1564503442593.75,10.09,0,0,0,0,0
1564503442609.38,11.04,0,0,0,0,0
1564503442625,11.88,0,0,0,0,0
1564503442640.63,12.56,0,0,0,0,0
1564503442656.25,13.14,0,0,0,0,0
1564503442671.88,13.76,0,0,0,0,0
1564503442687.5,14.65,0,0,0,0,0
1564503442703.13,15.96,0,0,0,0,0
1564503442718.75,17.91,0,0,0,0,0
1564503442734.38,20.32,0,0,0,0,0
1564503442750,22.9,0,0,0,0,0
1564503442765.63,25.38,0,0,0,0,0
1564503442781.25,27.58,0,0,0,0,0
1564503442796.88,29.57,0,0,0,0,0
1564503442812.5,31.68,0,0,0,0,0
1564503442828.13,34.32,0,0,0,0,0
1564503442843.75,37.81,0,0,0,0,0
1564503442859.38,42.54,0,0,0,0,0
1564503442875,48.15,0,0,0,0,0
1564503442890.63,54.1,0,0,0,0,0
1564503442906.25,59.83,0,0,0,0,0
1564503442921.88,64.97,0,0,0,0,0
1564503442937.5,69.58,0,0,0,0,0
1564503442953.13,74.14,0,0,0,0,0
1564503442968.75,79.34,0,0,0,0,0
1564503442984.38,85.71,0,0,0,0,0
1564503443000,93.76,0,0,0,0,0
1564503443015.63,103,0,0,0,0,0
1564503443031.25,112.62,0,0,0,0,0
1564503443046.88,121.73,0,0,0,0,0
1564503443062.5,129.77,0,0,0,0,0
1564503443078.13,136.75,0,0,0,0,0
1564503443093.75,143.3,0,0,0,0,0
1564503443109.38,150.75,0,0,0,0,0
1564503443125,157.77,0,0,0,0,0
1564503443140.63,166.64,0,0,0,0,0
1564503443156.25,177.95,0,0,0,0,0
1564503443171.88,191.79,0,0,0,0,0
1564503443187.5,206.97,0,0,0,0,0
1564503443203.13,220.57,0,0,0,0,0
1564503443218.75,228.25,0,0,0,0,0
1564503443234.38,225.36,0,0,0,0,0
1564503443250,208.53,0,0,0,0,0
1564503443265.63,176.87,0,0,0,0,0
1564503443281.25,132.76,0,0,0,0,0
1564503443296.88,80.05,0,0,0,0,0
1564503443312.5,23.07,0,0,0,0,0
1564503443328.13,-34.94,0,0,0,0,0
1564503443343.75,-92.44,0,0,0,0,0
1564503443359.38,-149.16,0,0,0,0,0
1564503443375,-205.23,0,0,0,0,0
1564503443390.63,-260.37,0,0,0,0,0
1564503443406.25,-313.74,0,0,0,0,0
1564503443421.88,-363.87,0,0,0,0,0
1564503443437.5,-409.83,0,0,0,0,0
1564503443453.13,-450.91,0,0,0,0,0
1564503443468.75,-486.5,0,0,0,0,0
1564503443484.38,-515.74,0,0,0,0,0
1564503443500,-537.23,0,0,0,0,0
1564503443515.63,-549.22,0,0,0,0,0
1564503443531.25,-549.96,0,0,0,0,0
1564503443546.88,-538.37,0,0,0,0,0
1564503443562.5,-514.21,0,0,0,0,0
1564503443578.13,-478.67,0,0,0,0,0
1564503443593.75,-433.88,0,0,0,0,0
1564503443609.38,-382.45,0,0,0,0,0
1564503443625,-327.02,0,0,0,0,0
1564503443640.63,-269.84,0,0,0,0,0
1564503443656.25,-212.63,0,0,0,0,0
1564503443671.88,-156.66,0,0,0,0,0
1564503443687.5,-102.95,0,0,0,0,0
1564503443703.13,-52.37,0,0,0,0,0
1564503443718.75,-5.9,0,0,0,0,0
1564503443734.38,35.58,0,0,0,0,0
1564503443750,71.43,0,0,0,0,0
1564503443765.63,101.35,0,0,0,0,0
1564503443781.25,125.5,0,0,0,0,0
1564503443796.88,144.38,0,0,0,0,0
1564503443812.5,158.69,0,0,0,0,0
1564503443828.13,169.15,0,0,0,0,0
1564503443843.75,176.37,0,0,0,0,0
1564503443859.38,180.75,0,0,0,0,0
1564503443875,182.57,0,0,0,0,0
1564503443890.63,182.07,0,0,0,0,0
1564503443906.25,179.51,0,0,0,0,0
1564503443921.88,175.23,0,0,0,0,0
1564503443937.5,169.65,0,0,0,0,0
1564503443953.13,163.18,0,0,0,0,0
1564503443968.75,156.15,0,0,0,0,0
1564503443984.38,148.81,0,0,0,0,0
1564503444000,141.3,0,0,0,0,0
1564503444015.63,133.69,0,0,0,0,0
1564503444031.25,126.02,0,0,0,0,0
1564503444046.88,118.33,0,0,0,0,0
1564503444062.5,110.69,0,0,0,0,0
1564503444078.13,103.16,0,0,0,0,0
1564503444093.75,95.8,0,0,0,0,0
1564503444109.38,88.68,0,0,0,0,0
1564503444125,81.83,0,0,0,0,0
1564503444140.63,75.25,0,0,0,0,0
1564503444156.25,68.95,0,0,0,0,0
1564503444171.88,62.95,0,0,0,0,0
1564503444187.5,57.25,0,0,0,0,0
1564503444203.13,51.86,0,0,0,0,0
1564503444218.75,46.78,0,0,0,0,0
1564503444234.38,42.03,0,0,0,0,0
1564503444250,37.59,0,0,0,0,0
1564503444265.63,33.45,0,0,0,0,0
1564503444281.25,29.61,0,0,0,0,0
1564503444296.88,26.07,0,0,0,0,0
1564503444312.5,22.81,0,0,0,0,0
1564503444328.13,19.83,0,0,0,0,0
1564503444343.75,17.11,0,0,0,0,0
1564503444359.38,14.67,0,0,0,0,0
1564503444375,12.48,0,0,0,0,0
1564503444390.63,10.54,0,0,0,0,0
1564503444406.25,8.83,0,0,0,0,0
1564503444421.88,7.35,0,0,0,0,0
1564503444437.5,6.07,0,0,0,0,0
1564503444453.13,4.97,0,0,0,0,0
1564503444468.75,4.05,0,0,0,0,0
1564503444484.38,3.27,0,0,0,0,0
1564503444500,2.62,0,0,0,0,0
1564503444515.63,2.09,0,0,0,0,0
1564503444531.25,1.65,0,0,0,0,0
1564503444546.88,1.3,0,0,0,0,0
1564503444562.5,1.01,0,0,0,0,0
1564503444578.13,0.79,0,0,0,0,0
1564503444593.75,0.61,0,0,0,0,0
1564503444609.38,0.48,0,0,0,0,0
1564503444625,0.37,0,0,0,0,0
1564503444640.63,0.28,0,0,0,0,0
1564503444656.25,0.22,0,0,0,0,0
1564503444671.88,0.17,0,0,0,0,0
1564503444687.5,0.14,0,0,0,0,0
1564503444703.13,0.11,0,0,0,0,0
1564503444718.75,0.1,0,0,0,0,0
1564503444734.38,0.09,0,0,0,0,0
1564503444750,0.09,0,0,0,0,0
1564503444765.63,0.1,0,0,0,0,0
1564503444781.25,0.11,0,0,0,0,0
1564503444796.88,0.13,0,0,0,0,0
1564503444812.5,0.15,0,0,0,0,0
1564503444828.13,0.18,0,0,0,0,0
1564503444843.75,0.21,0,0,0,0,0
1564503444859.38,0.25,0,0,0,0,0
1564503444875,0.29,0,0,0,0,0
1564503444890.63,0.33,0,0,0,0,0
1564503444906.25,0.38,0,0,0,0,0
1564503444921.88,0.43,0,0,0,0,0
1564503444937.5,0.48,0,0,0,0,0
1564503444953.13,0.53,0,0,0,0,0
1564503444968.75,0.58,0,0,0,0,0
1564503444984.38,0.63,0,0,0,0,0
1564503445000,0.69,0,0,0,0,0
1564503445015.63,0.75,0,0,0,0,0
1564503445031.25,0.81,0,0,0,0,0
1564503445046.88,0.88,0,0,0,0,0
1564503445062.5,0.96,0,0,0,0,0
1564503445078.13,1.04,0,0,0,0,0
1564503445093.75,1.14,0,0,0,0,0
1564503445109.38,1.24,0,0,0,0,0
1564503445125,1.35,0,0,0,0,0
1564503445140.63,1.48,0,0,0,0,0
1564503445156.25,1.63,0,0,0,0,0
1564503445171.88,1.79,0,0,0,0,0
1564503445187.5,1.97,0,0,0,0,0
1564503445203.13,2.17,0,0,0,0,0
1564503445218.75,2.39,0,0,0,0,0
1564503445234.38,2.63,0,0,0,0,0
1564503445250,2.9,0,0,0,0,0
1564503445265.63,3.2,0,0,0,0,0
1564503445281.25,3.53,0,0,0,0,0
1564503445296.88,3.89,0,0,0,0,0
1564503445312.5,4.28,0,0,0,0,0
1564503445328.13,4.71,0,0,0,0,0
1564503445343.75,5.17,0,0,0,0,0
1564503445359.38,5.67,0,0,0,0,0
1564503445375,6.21,0,0,0,0,0
1564503445390.63,6.8,0,0,0,0,0
1564503445406.25,7.42,0,0,0,0,0
1564503445421.88,8.09,0,0,0,0,0
1564503445437.5,8.81,0,0,0,0,0
1564503445453.13,9.56,0,0,0,0,0
1564503445468.75,10.37,0,0,0,0,0
1564503445484.38,11.22,0,0,0,0,0
1564503445500,12.13,0,0,0,0,0
1564503445515.63,13.07,0,0,0,0,0
1564503445531.25,14.08,0,0,0,0,0
1564503445546.88,15.14,0,0,0,0,0
1564503445562.5,16.27,0,0,0,0,0
1564503445578.13,17.47,0,0,0,0,0
1564503445593.75,18.73,0,0,0,0,0
1564503445609.38,20.03,0,0,0,0,0
1564503445625,21.35,0,0,0,0,0
1564503445640.63,22.65,0,0,0,0,0
1564503445656.25,23.83,0,0,0,0,0
1564503445671.88,24.81,0,0,0,0,0
1564503445687.5,25.46,0,0,0,0,0
1564503445703.13,25.66,0,0,0,0,0
1564503445718.75,25.29,0,0,0,0,0
1564503445734.38,24.25,0,0,0,0,0
1564503445750,22.46,0,0,0,0,0
1564503445765.63,19.93,0,0,0,0,0
1564503445781.25,16.69,0,0,0,0,0
1564503445796.88,12.8,0,0,0,0,0
1564503445812.5,8.43,0,0,0,0,0
1564503445828.13,3.77,0,0,0,0,0
1564503445843.75,-0.96,0,0,0,0,0
1564503445859.38,-5.53,0,0,0,0,0
1564503445875,-9.72,0,0,0,0,0
1564503445890.63,-13.35,0,0,0,0,0
1564503445906.25,-16.31,0,0,0,0,0
1564503445921.88,-18.57,0,0,0,0,0
1564503445937.5,-20.15,0,0,0,0,0
1564503445953.13,-21.1,0,0,0,0,0
1564503445968.75,-21.52,0,0,0,0,0
1564503445984.38,-21.49,0,0,0,0,0
1564503446000,-21.04,0,0,0,0,0
1564503446015.63,-20.22,0,0,0,0,0
1564503446031.25,-19.09,0,0,0,0,0
1564503446046.88,-17.72,0,0,0,0,0
1564503446062.5,-16.25,0,0,0,0,0
1564503446078.13,-14.77,0,0,0,0,0
1564503446093.75,-13.37,0,0,0,0,0
1564503446109.38,-12.11,0,0,0,0,0
1564503446125,-10.93,0,0,0,0,0
1564503446140.63,-9.72,0,0,0,0,0
1564503446156.25,-8.3,0,0,0,0,0
1564503446171.88,-6.58,0,0,0,0,0
1564503446187.5,-4.51,0,0,0,0,0
1564503446203.13,-2.2,0,0,0,0,0
1564503446218.75,0.22,0,0,0,0,0
1564503446234.38,2.68,0,0,0,0,0
1564503446250,5.03,0,0,0,0,0
1564503446265.63,7.32,0,0,0,0,0
1564503446281.25,9.76,0,0,0,0,0
1564503446296.88,12.58,0,0,0,0,0
1564503446312.5,15.92,0,0,0,0,0
1564503446328.13,19.67,0,0,0,0,0
1564503446343.75,23.52,0,0,0,0,0
1564503446359.38,27.09,0,0,0,0,0
1564503446375,30.12,0,0,0,0,0
1564503446390.63,32.27,0,0,0,0,0
1564503446406.25,33.73,0,0,0,0,0
1564503446421.88,35.04,0,0,0,0,0
1564503446437.5,36.82,0,0,0,0,0
1564503446453.13,39.41,0,0,0,0,0
1564503446468.75,42.67,0,0,0,0,0
1564503446484.38,45.89,0,0,0,0,0
1564503446500,48.17,0,0,0,0,0
1564503446515.63,48.85,0,0,0,0,0
1564503446531.25,47.33,0,0,0,0,0
1564503446546.88,44.04,0,0,0,0,0
1564503446562.5,40.14,0,0,0,0,0
1564503446578.13,37.04,0,0,0,0,0
1564503446593.75,35.61,0,0,0,0,0
1564503446609.38,35.77,0,0,0,0,0
1564503446625,36.46,0,0,0,0,0
1564503446640.63,36.08,0,0,0,0,0
1564503446656.25,33.4,0,0,0,0,0
1564503446671.88,27.36,0,0,0,0,0
1564503446687.5,18.45,0,0,0,0,0
1564503446703.13,8.15,0,0,0,0,0
1564503446718.75,-1.8,0,0,0,0,0
1564503446734.38,-10.54,0,0,0,0,0
1564503446750,-18.7,0,0,0,0,0
1564503446765.63,-28.74,0,0,0,0,0
1564503446781.25,-44.75,0,0,0,0,0
1564503446796.88,-66.04,0,0,0,0,0
1564503446812.5,-94,0,0,0,0,0
1564503446828.13,-129.25,0,0,0,0,0
1564503446843.75,-170.84,0,0,0,0,0
1564503446859.38,-215.47,0,0,0,0,0
1564503446875,-257.41,0,0,0,0,0
1564503446890.63,-289.47,0,0,0,0,0
1564503446906.25,-304.96,0,0,0,0,0
1564503446921.88,-300.13,0,0,0,0,0
1564503446937.5,-275.91,0,0,0,0,0
1564503446953.13,-238.93,0,0,0,0,0
1564503446968.75,-198.48,0,0,0,0,0
1564503446984.38,-163.24,0,0,0,0,0
1564503447000,-138.05,0,0,0,0,0
1564503447015.63,-122.32,0,0,0,0,0
1564503447031.25,-110.88,0,0,0,0,0
1564503447046.88,-96.7,0,0,0,0,0
1564503447062.5,-74.18,0,0,0,0,0
1564503447078.13,-41.22,0,0,0,0,0
1564503447093.75,-0.22,0,0,0,0,0
1564503447109.38,44.2,0,0,0,0,0
1564503447125,87.2,0,0,0,0,0
1564503447140.63,125.22,0,0,0,0,0
1564503447156.25,156.3,0,0,0,0,0
1564503447171.88,179.44,0,0,0,0,0
1564503447187.5,193.79,0,0,0,0,0
1564503447203.13,198.11,0,0,0,0,0
1564503447218.75,191.58,0,0,0,0,0
1564503447234.38,174.33,0,0,0,0,0
1564503447250,148.8,0,0,0,0,0
1564503447265.63,119.36,0,0,0,0,0
1564503447281.25,91.14,0,0,0,0,0
1564503447296.88,68.35,0,0,0,0,0
1564503447312.5,53.08,0,0,0,0,0
1564503447328.13,45.27,0,0,0,0,0
1564503447343.75,43.35,0,0,0,0,0
1564503447359.38,45.47,0,0,0,0,0
1564503447375,50.16,0,0,0,0,0
1564503447390.63,56.75,0,0,0,0,0
1564503447406.25,65,0,0,0,0,0
1564503447421.88,74.41,0,0,0,0,0
1564503447437.5,83.93,0,0,0,0,0
1564503447453.13,91.98,0,0,0,0,0
1564503447468.75,96.99,0,0,0,0,0
1564503447484.38,97.97,0,0,0,0,0
1564503447500,94.97,0,0,0,0,0
1564503447515.63,89.02,0,0,0,0,0
1564503447531.25,81.94,0,0,0,0,0
1564503447546.88,75.8,0,0,0,0,0
1564503447562.5,72.28,0,0,0,0,0
1564503447578.13,72.4,0,0,0,0,0
1564503447593.75,76.21,0,0,0,0,0
1564503447609.38,82.9,0,0,0,0,0
1564503447625,91.03,0,0,0,0,0
1564503447640.63,98.96,0,0,0,0,0
1564503447656.25,105.14,0,0,0,0,0
1564503447671.88,108.46,0,0,0,0,0
1564503447687.5,108.41,0,0,0,0,0
1564503447703.13,105.07,0,0,0,0,0
1564503447718.75,98.93,0,0,0,0,0
1564503447734.38,90.68,0,0,0,0,0
1564503447750,80.92,0,0,0,0,0
1564503447765.63,70,0,0,0,0,0
1564503447781.25,58.03,0,0,0,0,0
1564503447796.88,45.05,0,0,0,0,0
1564503447812.5,31.26,0,0,0,0,0
1564503447828.13,17.21,0,0,0,0,0
1564503447843.75,3.8,0,0,0,0,0
1564503447859.38,-7.94,0,0,0,0,0
1564503447875,-17.25,0,0,0,0,0
1564503447890.63,-23.99,0,0,0,0,0
1564503447906.25,-28.71,0,0,0,0,0
1564503447921.88,-32.49,0,0,0,0,0
1564503447937.5,-36.54,0,0,0,0,0
1564503447953.13,-41.75,0,0,0,0,0
1564503447968.75,-48.4,0,0,0,0,0
1564503447984.38,-56.09,0,0,0,0,0
1564503448000,-63.85,0,0,0,0,0
1564503448015.63,-70.36,0,0,0,0,0
1564503448031.25,-74.32,0,0,0,0,0
1564503448046.88,-74.83,0,0,0,0,0
1564503448062.5,-71.55,0,0,0,0,0
1564503448078.13,-64.81,0,0,0,0,0
1564503448093.75,-55.53,0,0,0,0,0
1564503448109.38,-44.9,0,0,0,0,0
1564503448125,-34.09,0,0,0,0,0
1564503448140.63,-24.01,0,0,0,0,0
1564503448156.25,-15.28,0,0,0,0,0
1564503448171.88,-8.21,0,0,0,0,0
1564503448187.5,-3.03,0,0,0,0,0
1564503448203.13,0.12,0,0,0,0,0
1564503448218.75,1.17,0,0,0,0,0
1564503448234.38,0.12,0,0,0,0,0
1564503448250,-2.85,0,0,0,0,0
1564503448265.63,-7.41,0,0,0,0,0
1564503448281.25,-13,0,0,0,0,0
1564503448296.88,-19.01,0,0,0,0,0
1564503448312.5,-24.78,0,0,0,0,0
1564503448328.13,-29.8,0,0,0,0,0
1564503448343.75,-33.85,0,0,0,0,0
1564503448359.38,-36.97,0,0,0,0,0
1564503448375,-39.43,0,0,0,0,0
1564503448390.63,-41.53,0,0,0,0,0
1564503448406.25,-43.47,0,0,0,0,0
1564503448421.88,-45.31,0,0,0,0,0
1564503448437.5,-47.14,0,0,0,0,0
1564503448453.13,-49.04,0,0,0,0,0
1564503448468.75,-51.18,0,0,0,0,0
1564503448484.38,-53.53,0,0,0,0,0
1564503448500,-55.76,0,0,0,0,0
1564503448515.63,-57.11,0,0,0,0,0
1564503448531.25,-56.59,0,0,0,0,0
1564503448546.88,-53.35,0,0,0,0,0
1564503448562.5,-47.02,0,0,0,0,0
1564503448578.13,-37.95,0,0,0,0,0
1564503448593.75,-27.13,0,0,0,0,0
1564503448609.38,-15.93,0,0,0,0,0
1564503448625,-5.8,0,0,0,0,0
1564503448640.63,2.01,0,0,0,0,0
1564503448656.25,6.52,0,0,0,0,0
1564503448671.88,7.16,0,0,0,0,0
1564503448687.5,3.79,0,0,0,0,0
1564503448703.13,-3.13,0,0,0,0,0
1564503448718.75,-12.6,0,0,0,0,0
1564503448734.38,-23.1,0,0,0,0,0
1564503448750,-33.1,0,0,0,0,0
1564503448765.63,-41.5,0,0,0,0,0
1564503448781.25,-48.15,0,0,0,0,0
1564503448796.88,-54.22,0,0,0,0,0
1564503448812.5,-61.96,0,0,0,0,0
1564503448828.13,-73.89,0,0,0,0,0
1564503448843.75,-91.6,0,0,0,0,0
1564503448859.38,-114.79,0,0,0,0,0
1564503448875,-140.93,0,0,0,0,0
1564503448890.63,-165.76,0,0,0,0,0
1564503448906.25,-184.59,0,0,0,0,0
1564503448921.88,-193.52,0,0,0,0,0
1564503448937.5,-190.38,0,0,0,0,0
1564503448953.13,-174.87,0,0,0,0,0
1564503448968.75,-148.17,0,0,0,0,0
1564503448984.38,-112.12,0,0,0,0,0
1564503449000,-68.88,0,0,0,0,0
1564503449015.63,-20.68,0,0,0,0,0
1564503449031.25,30.06,0,0,0,0,0
1564503449046.88,80.53,0,0,0,0,0
1564503449062.5,127.66,0,0,0,0,0
1564503449078.13,168.38,0,0,0,0,0
1564503449093.75,200.17,0,0,0,0,0
1564503449109.38,221.58,0,0,0,0,0
1564503449125,232.53,0,0,0,0,0
1564503449140.63,234.03,0,0,0,0,0
1564503449156.25,227.69,0,0,0,0,0
1564503449171.88,214.85,0,0,0,0,0
1564503449187.5,196.08,0,0,0,0,0
1564503449203.13,171.2,0,0,0,0,0
1564503449218.75,139.86,0,0,0,0,0
1564503449234.38,102.54,0,0,0,0,0
1564503449250,61.09,0,0,0,0,0
1564503449265.63,18.74,0,0,0,0,0
1564503449281.25,-20.62,0,0,0,0,0
1564503449296.88,-53.56,0,0,0,0,0
1564503449312.5,-78.09,0,0,0,0,0
1564503449328.13,-94.08,0,0,0,0,0
1564503449343.75,-103.11,0,0,0,0,0
1564503449359.38,-107.89,0,0,0,0,0
1564503449375,-111.43,0,0,0,0,0
1564503449390.63,-116.3,0,0,0,0,0
1564503449406.25,-123.89,0,0,0,0,0
1564503449421.88,-133.88,0,0,0,0,0
1564503449437.5,-144.1,0,0,0,0,0
1564503449453.13,-151.01,0,0,0,0,0
1564503449468.75,-150.84,0,0,0,0,0
1564503449484.38,-140.75,0,0,0,0,0
1564503449500,-120.01,0,0,0,0,0
1564503449515.63,-90.46,0,0,0,0,0
1564503449531.25,-56.05,0,0,0,0,0
1564503449546.88,-21.75,0,0,0,0,0
1564503449562.5,7.81,0,0,0,0,0
1564503449578.13,29.43,0,0,0,0,0
1564503449593.75,41.74,0,0,0,0,0
1564503449609.38,44.94,0,0,0,0,0
1564503449625,40.26,0,0,0,0,0
1564503449640.63,29.32,0,0,0,0,0
1564503449656.25,13.78,0,0,0,0,0
1564503449671.88,-4.71,0,0,0,0,0
1564503449687.5,-24.42,0,0,0,0,0
1564503449703.13,-43.53,0,0,0,0,0
1564503449718.75,-60.2,0,0,0,0,0
1564503449734.38,-72.84,0,0,0,0,0
1564503449750,-80.4,0,0,0,0,0
1564503449765.63,-82.71,0,0,0,0,0
1564503449781.25,-80.43,0,0,0,0,0
1564503449796.88,-74.9,0,0,0,0,0
1564503449812.5,-67.82,0,0,0,0,0
1564503449828.13,-60.84,0,0,0,0,0
1564503449843.75,-55.42,0,0,0,0,0
1564503449859.38,-52.78,0,0,0,0,0
1564503449875,-53.92,0,0,0,0,0
1564503449890.63,-59.51,0,0,0,0,0
1564503449906.25,-69.46,0,0,0,0,0
1564503449921.88,-82.29,0,0,0,0,0
1564503449937.5,-94.87,0,0,0,0,0
1564503449953.13,-102.81,0,0,0,0,0
1564503449968.75,-101.62,0,0,0,0,0
1564503449984.38,-88.3,0,0,0,0,0
1564503450000,-62.58,0,0,0,0,0
1564503450015.63,-27.3,0,0,0,0,0
1564503450031.25,12.41,0,0,0,0,0
1564503450046.88,50.7,0,0,0,0,0
1564503450062.5,82.67,0,0,0,0,0
1564503450078.13,105.41,0,0,0,0,0
1564503450093.75,118.19,0,0,0,0,0
1564503450109.38,121.87,0,0,0,0,0
1564503450125,118.09,0,0,0,0,0
1564503450140.63,108.5,0,0,0,0,0
1564503450156.25,94.5,0,0,0,0,0
1564503450171.88,77.25,0,0,0,0,0
1564503450187.5,57.92,0,0,0,0,0
1564503450203.13,37.85,0,0,0,0,0
1564503450218.75,18.68,0,0,0,0,0
1564503450234.38,2.07,0,0,0,0,0
1564503450250,-10.71,0,0,0,0,0
1564503450265.63,-19.17,0,0,0,0,0
1564503450281.25,-23.65,0,0,0,0,0
1564503450296.88,-25.2,0,0,0,0,0
1564503450312.5,-25.14,0,0,0,0,0
1564503450328.13,-24.62,0,0,0,0,0
1564503450343.75,-24.56,0,0,0,0,0
1564503450359.38,-25.78,0,0,0,0,0
1564503450375,-29.21,0,0,0,0,0
1564503450390.63,-35.72,0,0,0,0,0
1564503450406.25,-45.62,0,0,0,0,0
1564503450421.88,-57.81,0,0,0,0,0
1564503450437.5,-69.37,0,0,0,0,0
1564503450453.13,-75.89,0,0,0,0,0
1564503450468.75,-72.75,0,0,0,0,0
1564503450484.38,-56.9,0,0,0,0,0
1564503450500,-28.27,0,0,0,0,0
1564503450515.63,9.86,0,0,0,0,0
1564503450531.25,51.75,0,0,0,0,0
1564503450546.88,91,0,0,0,0,0
1564503450562.5,122.41,0,0,0,0,0
1564503450578.13,143.16,0,0,0,0,0
1564503450593.75,152.97,0,0,0,0,0
1564503450609.38,153.35,0,0,0,0,0
1564503450625,146.52,0,0,0,0,0
1564503450640.63,134.55,0,0,0,0,0
1564503450656.25,118.91,0,0,0,0,0
1564503450671.88,100.57,0,0,0,0,0
1564503450687.5,80.34,0,0,0,0,0
1564503450703.13,59.21,0,0,0,0,0
1564503450718.75,38.44,0,0,0,0,0
1564503450734.38,19.5,0,0,0,0,0
1564503450750,3.67,0,0,0,0,0
1564503450765.63,-8.23,0,0,0,0,0
1564503450781.25,-16.15,0,0,0,0,0
1564503450796.88,-20.72,0,0,0,0,0
1564503450812.5,-23.05,0,0,0,0,0
1564503450828.13,-24.39,0,0,0,0,0
1564503450843.75,-25.99,0,0,0,0,0
1564503450859.38,-29.01,0,0,0,0,0
1564503450875,-34.56,0,0,0,0,0
1564503450890.63,-43.42,0,0,0,0,0
1564503450906.25,-55.5,0,0,0,0,0
1564503450921.88,-69.16,0,0,0,0,0
1564503450937.5,-81.03,0,0,0,0,0
1564503450953.13,-86.6,0,0,0,0,0
1564503450968.75,-81.74,0,0,0,0,0
1564503450984.38,-64.36,0,0,0,0,0
1564503451000,-35.56,0,0,0,0,0
1564503451015.63,0.47,0,0,0,0,0
1564503451031.25,37.81,0,0,0,0,0
1564503451046.88,70.81,0,0,0,0,0
1564503451062.5,95.72,0,0,0,0,0
1564503451078.13,111.31,0,0,0,0,0
1564503451093.75,118.38,0,0,0,0,0
1564503451109.38,118.65,0,0,0,0,0
1564503451125,113.69,0,0,0,0,0
1564503451140.63,104.4,0,0,0,0,0
1564503451156.25,91.18,0,0,0,0,0
1564503451171.88,74.4,0,0,0,0,0
1564503451187.5,54.87,0,0,0,0,0
1564503451203.13,33.97,0,0,0,0,0
1564503451218.75,13.51,0,0,0,0,0
1564503451234.38,-4.69,0,0,0,0,0
1564503451250,-19.24,0,0,0,0,0
1564503451265.63,-29.44,0,0,0,0,0
1564503451281.25,-35.46,0,0,0,0,0
1564503451296.88,-38.11,0,0,0,0,0
1564503451312.5,-38.65,0,0,0,0,0
1564503451328.13,-38.58,0,0,0,0,0
1564503451343.75,-39.52,0,0,0,0,0
1564503451359.38,-43.08,0,0,0,0,0
1564503451375,-50.37,0,0,0,0,0
1564503451390.63,-61.41,0,0,0,0,0
1564503451406.25,-74.5,0,0,0,0,0
1564503451421.88,-86.01,0,0,0,0,0
1564503451437.5,-91.23,0,0,0,0,0
1564503451453.13,-85.77,0,0,0,0,0
1564503451468.75,-67.42,0,0,0,0,0
1564503451484.38,-37.15,0,0,0,0,0
1564503451500,0.89,0,0,0,0,0
1564503451515.63,40.77,0,0,0,0,0
1564503451531.25,76.68,0,0,0,0,0
1564503451546.88,104.52,0,0,0,0,0
1564503451562.5,122.6,0,0,0,0,0
1564503451578.13,131.31,0,0,0,0,0
1564503451593.75,132.21,0,0,0,0,0
1564503451609.38,127.12,0,0,0,0,0
1564503451625,117.54,0,0,0,0,0
1564503451640.63,104.52,0,0,0,0,0
1564503451656.25,88.73,0,0,0,0,0
1564503451671.88,70.61,0,0,0,0,0
1564503451687.5,50.66,0,0,0,0,0
1564503451703.13,29.63,0,0,0,0,0
1564503451718.75,8.76,0,0,0,0,0
1564503451734.38,-10.33,0,0,0,0,0
1564503451750,-26.04,0,0,0,0,0
1564503451765.63,-37.23,0,0,0,0,0
1564503451781.25,-43.77,0,0,0,0,0
1564503451796.88,-46.51,0,0,0,0,0
1564503451812.5,-47.05,0,0,0,0,0
1564503451828.13,-47.27,0,0,0,0,0
1564503451843.75,-48.89,0,0,0,0,0
1564503451859.38,-53.13,0,0,0,0,0
1564503451875,-60.34,0,0,0,0,0
1564503451890.63,-69.61,0,0,0,0,0
1564503451906.25,-78.56,0,0,0,0,0
1564503451921.88,-83.53,0,0,0,0,0
1564503451937.5,-80.57,0,0,0,0,0
1564503451953.13,-66.77,0,0,0,0,0
1564503451968.75,-41.7,0,0,0,0,0
1564503451984.38,-7.92,0,0,0,0,0
1564503452000,29.64,0,0,0,0,0
1564503452015.63,65.24,0,0,0,0,0
1564503452031.25,94.19,0,0,0,0,0
1564503452046.88,114.08,0,0,0,0,0
1564503452062.5,124.84,0,0,0,0,0
1564503452078.13,128.02,0,0,0,0,0
1564503452093.75,125.62,0,0,0,0,0
1564503452109.38,119.26,0,0,0,0,0
1564503452125,109.77,0,0,0,0,0
1564503452140.63,97.45,0,0,0,0,0
1564503452156.25,82.51,0,0,0,0,0
1564503452171.88,65.5,0,0,0,0,0
1564503452187.5,47.48,0,0,0,0,0
1564503452203.13,30.01,0,0,0,0,0
1564503452218.75,14.7,0,0,0,0,0
1564503452234.38,2.84,0,0,0,0,0
1564503452250,-4.93,0,0,0,0,0
1564503452265.63,-8.78,0,0,0,0,0
1564503452281.25,-9.6,0,0,0,0,0
1564503452296.88,-8.7,0,0,0,0,0
1564503452312.5,-7.58,0,0,0,0,0
1564503452328.13,-7.82,0,0,0,0,0
1564503452343.75,-10.99,0,0,0,0,0
1564503452359.38,-18.3,0,0,0,0,0
1564503452375,-29.97,0,0,0,0,0
1564503452390.63,-44.67,0,0,0,0,0
1564503452406.25,-59.24,0,0,0,0,0
1564503452421.88,-69.29,0,0,0,0,0
1564503452437.5,-70.51,0,0,0,0,0
1564503452453.13,-60.28,0,0,0,0,0
1564503452468.75,-38.88,0,0,0,0,0
1564503452484.38,-9.61,0,0,0,0,0
1564503452500,22.26,0,0,0,0,0
1564503452515.63,51.2,0,0,0,0,0
1564503452531.25,73.07,0,0,0,0,0
1564503452546.88,86.1,0,0,0,0,0
1564503452562.5,90.69,0,0,0,0,0
1564503452578.13,88.65,0,0,0,0,0
1564503452593.75,82.01,0,0,0,0,0
1564503452609.38,72.25,0,0,0,0,0
1564503452625,60.16,0,0,0,0,0
1564503452640.63,46.03,0,0,0,0,0
1564503452656.25,30.26,0,0,0,0,0
1564503452671.88,13.64,0,0,0,0,0
1564503452687.5,-2.58,0,0,0,0,0
1564503452703.13,-17,0,0,0,0,0
1564503452718.75,-28.46,0,0,0,0,0
1564503452734.38,-36.46,0,0,0,0,0
1564503452750,-41.12,0,0,0,0,0
1564503452765.63,-43.02,0,0,0,0,0
1564503452781.25,-42.9,0,0,0,0,0
1564503452796.88,-41.57,0,0,0,0,0
1564503452812.5,-39.99,0,0,0,0,0
1564503452828.13,-39.41,0,0,0,0,0
1564503452843.75,-41.28,0,0,0,0,0
1564503452859.38,-46.76,0,0,0,0,0
1564503452875,-55.89,0,0,0,0,0
1564503452890.63,-66.99,0,0,0,0,0
1564503452906.25,-76.66,0,0,0,0,0
1564503452921.88,-80.69,0,0,0,0,0
1564503452937.5,-75.52,0,0,0,0,0
1564503452953.13,-59.77,0,0,0,0,0
1564503452968.75,-34.88,0,0,0,0,0
1564503452984.38,-4.78,0,0,0,0,0
1564503453000,25.52,0,0,0,0,0
1564503453015.63,51.47,0,0,0,0,0
1564503453031.25,70.32,0,0,0,0,0
1564503453046.88,81.29,0,0,0,0,0
1564503453062.5,85.16,0,0,0,0,0
1564503453078.13,83.29,0,0,0,0,0
1564503453093.75,76.95,0,0,0,0,0
1564503453109.38,66.86,0,0,0,0,0
1564503453125,53.45,0,0,0,0,0
1564503453140.63,37.24,0,0,0,0,0
1564503453156.25,19.15,0,0,0,0,0
1564503453171.88,0.69,0,0,0,0,0
1564503453187.5,-16.37,0,0,0,0,0
1564503453203.13,-30.38,0,0,0,0,0
1564503453218.75,-40.32,0,0,0,0,0
1564503453234.38,-46.06,0,0,0,0,0
1564503453250,-48.19,0,0,0,0,0
1564503453265.63,-47.82,0,0,0,0,0
1564503453281.25,-46.17,0,0,0,0,0
1564503453296.88,-44.47,0,0,0,0,0
1564503453312.5,-43.96,0,0,0,0,0
1564503453328.13,-45.8,0,0,0,0,0
1564503453343.75,-50.68,0,0,0,0,0
1564503453359.38,-58.26,0,0,0,0,0
1564503453375,-66.64,0,0,0,0,0
1564503453390.63,-72.51,0,0,0,0,0
1564503453406.25,-72,0,0,0,0,0
1564503453421.88,-62.21,0,0,0,0,0
1564503453437.5,-42.48,0,0,0,0,0
1564503453453.13,-14.92,0,0,0,0,0
1564503453468.75,16.23,0,0,0,0,0
1564503453484.38,46.02,0,0,0,0,0
1564503453500,70.42,0,0,0,0,0
1564503453515.63,87.31,0,0,0,0,0
1564503453531.25,96.58,0,0,0,0,0
1564503453546.88,99.45,0,0,0,0,0
1564503453562.5,97.48,0,0,0,0,0
1564503453578.13,91.79,0,0,0,0,0
1564503453593.75,82.87,0,0,0,0,0
1564503453609.38,70.8,0,0,0,0,0
1564503453625,55.73,0,0,0,0,0
1564503453640.63,38.27,0,0,0,0,0
1564503453656.25,19.7,0,0,0,0,0
1564503453671.88,1.7,0,0,0,0,0
1564503453687.5,-13.98,0,0,0,0,0
1564503453703.13,-26.01,0,0,0,0,0
1564503453718.75,-33.68,0,0,0,0,0
1564503453734.38,-37.09,0,0,0,0,0
1564503453750,-36.91,0,0,0,0,0
1564503453765.63,-34.38,0,0,0,0,0
1564503453781.25,-31.2,0,0,0,0,0
1564503453796.88,-29.35,0,0,0,0,0
1564503453812.5,-30.69,0,0,0,0,0
1564503453828.13,-36.26,0,0,0,0,0
1564503453843.75,-45.62,0,0,0,0,0
1564503453859.38,-56.49,0,0,0,0,0
1564503453875,-65.18,0,0,0,0,0
1564503453890.63,-67.76,0,0,0,0,0
1564503453906.25,-61.47,0,0,0,0,0
1564503453921.88,-45.86,0,0,0,0,0
1564503453937.5,-22.93,0,0,0,0,0
1564503453953.13,3.6,0,0,0,0,0
1564503453968.75,29.56,0,0,0,0,0
1564503453984.38,51.56,0,0,0,0,0
1564503454000,67.76,0,0,0,0,0
1564503454015.63,77.73,0,0,0,0,0
1564503454031.25,82.06,0,0,0,0,0
1564503454046.88,81.63,0,0,0,0,0
1564503454062.5,77.18,0,0,0,0,0
1564503454078.13,69.24,0,0,0,0,0
1564503454093.75,58.17,0,0,0,0,0
1564503454109.38,44.49,0,0,0,0,0
1564503454125,29.03,0,0,0,0,0
1564503454140.63,12.99,0,0,0,0,0
1564503454156.25,-2.14,0,0,0,0,0
1564503454171.88,-14.86,0,0,0,0,0
1564503454187.5,-24.02,0,0,0,0,0
1564503454203.13,-29.07,0,0,0,0,0
1564503454218.75,-30.17,0,0,0,0,0
1564503454234.38,-28.2,0,0,0,0,0
1564503454250,-24.55,0,0,0,0,0
1564503454265.63,-21.02,0,0,0,0,0
1564503454281.25,-19.6,0,0,0,0,0
1564503454296.88,-22.06,0,0,0,0,0
1564503454312.5,-29.28,0,0,0,0,0
1564503454328.13,-40.52,0,0,0,0,0
1564503454343.75,-53.18,0,0,0,0,0
1564503454359.38,-63.05,0,0,0,0,0
1564503454375,-65.7,0,0,0,0,0
1564503454390.63,-57.99,0,0,0,0,0
1564503454406.25,-39.5,0,0,0,0,0
1564503454421.88,-12.81,0,0,0,0,0
1564503454437.5,17.38,0,0,0,0,0
1564503454453.13,45.83,0,0,0,0,0
1564503454468.75,68.43,0,0,0,0,0
1564503454484.38,83.12,0,0,0,0,0
1564503454500,89.81,0,0,0,0,0
1564503454515.63,89.71,0,0,0,0,0
1564503454531.25,84.36,0,0,0,0,0
1564503454546.88,75.07,0,0,0,0,0
1564503454562.5,62.79,0,0,0,0,0
1564503454578.13,48.26,0,0,0,0,0
1564503454593.75,32.24,0,0,0,0,0
1564503454609.38,15.73,0,0,0,0,0
1564503454625,-0.12,0,0,0,0,0
1564503454640.63,-14.06,0,0,0,0,0
1564503454656.25,-25.13,0,0,0,0,0
1564503454671.88,-32.74,0,0,0,0,0
1564503454687.5,-36.88,0,0,0,0,0
1564503454703.13,-38.08,0,0,0,0,0
1564503454718.75,-37.21,0,0,0,0,0
1564503454734.38,-35.36,0,0,0,0,0
1564503454750,-33.69,0,0,0,0,0
1564503454765.63,-33.39,0,0,0,0,0
1564503454781.25,-35.47,0,0,0,0,0
1564503454796.88,-40.39,0,0,0,0,0
1564503454812.5,-47.56,0,0,0,0,0
1564503454828.13,-55.05,0,0,0,0,0
1564503454843.75,-59.86,0,0,0,0,0
1564503454859.38,-58.65,0,0,0,0,0
1564503454875,-49.14,0,0,0,0,0
1564503454890.63,-31.1,0,0,0,0,0
1564503454906.25,-6.7,0,0,0,0,0
1564503454921.88,20.14,0,0,0,0,0
1564503454937.5,45.08,0,0,0,0,0
1564503454953.13,64.68,0,0,0,0,0
1564503454968.75,77.23,0,0,0,0,0
1564503454984.38,82.72,0,0,0,0,0
1564503455000,82.29,0,0,0,0,0
1564503455015.63,77.32,0,0,0,0,0
1564503455031.25,68.98,0,0,0,0,0
1564503455046.88,58.04,0,0,0,0,0
1564503455062.5,45.04,0,0,0,0,0
1564503455078.13,30.6,0,0,0,0,0
1564503455093.75,15.46,0,0,0,0,0
1564503455109.38,0.61,0,0,0,0,0
1564503455125,-12.96,0,0,0,0,0
1564503455140.63,-24.37,0,0,0,0,0
1564503455156.25,-33.01,0,0,0,0,0
1564503455171.88,-38.65,0,0,0,0,0
1564503455187.5,-41.44,0,0,0,0,0
1564503455203.13,-41.92,0,0,0,0,0
1564503455218.75,-40.97,0,0,0,0,0
1564503455234.38,-39.73,0,0,0,0,0
1564503455250,-39.49,0,0,0,0,0
1564503455265.63,-41.34,0,0,0,0,0
1564503455281.25,-45.71,0,0,0,0,0
1564503455296.88,-51.87,0,0,0,0,0
1564503455312.5,-57.83,0,0,0,0,0
1564503455328.13,-60.62,0,0,0,0,0
1564503455343.75,-57.29,0,0,0,0,0
1564503455359.38,-46.05,0,0,0,0,0
1564503455375,-27.07,0,0,0,0,0
1564503455390.63,-2.59,0,0,0,0,0
1564503455406.25,23.68,0,0,0,0,0
1564503455421.88,47.83,0,0,0,0,0
1564503455437.5,66.85,0,0,0,0,0
1564503455453.13,79.23,0,0,0,0,0
1564503455468.75,84.92,0,0,0,0,0
1564503455484.38,84.75,0,0,0,0,0
1564503455500,79.88,0,0,0,0,0
1564503455515.63,71.29,0,0,0,0,0
1564503455531.25,59.76,0,0,0,0,0
1564503455546.88,45.9,0,0,0,0,0
1564503455562.5,30.31,0,0,0,0,0
1564503455578.13,13.73,0,0,0,0,0
1564503455593.75,-2.93,0,0,0,0,0
1564503455609.38,-18.57,0,0,0,0,0
1564503455625,-32.05,0,0,0,0,0
1564503455640.63,-42.44,0,0,0,0,0
1564503455656.25,-49.22,0,0,0,0,0
1564503455671.88,-52.45,0,0,0,0,0
1564503455687.5,-52.79,0,0,0,0,0
1564503455703.13,-51.34,0,0,0,0,0
1564503455718.75,-49.48,0,0,0,0,0
1564503455734.38,-48.68,0,0,0,0,0
1564503455750,-50.16,0,0,0,0,0
1564503455765.63,-54.43,0,0,0,0,0
1564503455781.25,-60.81,0,0,0,0,0
1564503455796.88,-67.25,0,0,0,0,0
1564503455812.5,-70.63,0,0,0,0,0
1564503455828.13,-67.8,0,0,0,0,0
1564503455843.75,-56.79,0,0,0,0,0
1564503455859.38,-37.78,0,0,0,0,0
1564503455875,-13.22,0,0,0,0,0
1564503455890.63,12.99,0,0,0,0,0
1564503455906.25,36.77,0,0,0,0,0
1564503455921.88,55.25,0,0,0,0,0
1564503455937.5,67.17,0,0,0,0,0
1564503455953.13,72.8,0,0,0,0,0
1564503455968.75,73.17,0,0,0,0,0
1564503455984.38,69.4,0,0,0,0,0
1564503456000,62.3,0,0,0,0,0
1564503456015.63,52.4,0,0,0,0,0
1564503456031.25,40.15,0,0,0,0,0
1564503456046.88,26.11,0,0,0,0,0
1564503456062.5,11,0,0,0,0,0
1564503456078.13,-4.29,0,0,0,0,0
1564503456093.75,-18.81,0,0,0,0,0
1564503456109.38,-31.58,0,0,0,0,0
1564503456125,-41.72,0,0,0,0,0
1564503456140.63,-48.62,0,0,0,0,0
1564503456156.25,-52.17,0,0,0,0,0
1564503456171.88,-52.81,0,0,0,0,0
1564503456187.5,-51.65,0,0,0,0,0
1564503456203.13,-50.3,0,0,0,0,0
1564503456218.75,-50.55,0,0,0,0,0
1564503456234.38,-53.71,0,0,0,0,0
1564503456250,-60.06,0,0,0,0,0
1564503456265.63,-68.3,0,0,0,0,0
1564503456281.25,-75.62,0,0,0,0,0
1564503456296.88,-78.5,0,0,0,0,0
1564503456312.5,-73.84,0,0,0,0,0
1564503456328.13,-60.27,0,0,0,0,0
1564503456343.75,-38.78,0,0,0,0,0
1564503456359.38,-12.47,0,0,0,0,0
1564503456375,14.46,0,0,0,0,0
1564503456390.63,38.07,0,0,0,0,0
1564503456406.25,55.7,0,0,0,0,0
1564503456421.88,66.35,0,0,0,0,0
1564503456437.5,70.33,0,0,0,0,0
1564503456453.13,68.57,0,0,0,0,0
1564503456468.75,62.03,0,0,0,0,0
1564503456484.38,51.44,0,0,0,0,0
1564503456500,37.4,0,0,0,0,0
1564503456515.63,20.64,0,0,0,0,0
1564503456531.25,2.11,0,0,0,0,0
1564503456546.88,-17.02,0,0,0,0,0
1564503456562.5,-35.37,0,0,0,0,0
1564503456578.13,-51.73,0,0,0,0,0
1564503456593.75,-65.12,0,0,0,0,0
1564503456609.38,-75.04,0,0,0,0,0
1564503456625,-81.53,0,0,0,0,0
1564503456640.63,-85.19,0,0,0,0,0
1564503456656.25,-87.15,0,0,0,0,0
1564503456671.88,-88.89,0,0,0,0,0
1564503456687.5,-92.05,0,0,0,0,0
1564503456703.13,-97.9,0,0,0,0,0
1564503456718.75,-106.85,0,0,0,0,0
1564503456734.38,-117.89,0,0,0,0,0
1564503456750,-128.48,0,0,0,0,0
1564503456765.63,-135.05,0,0,0,0,0
1564503456781.25,-133.99,0,0,0,0,0
1564503456796.88,-122.85,0,0,0,0,0
1564503456812.5,-101.11,0,0,0,0,0
1564503456828.13,-70.25,0,0,0,0,0
1564503456843.75,-33.04,0,0,0,0,0
1564503456859.38,7.39,0,0,0,0,0
1564503456875,48.42,0,0,0,0,0
1564503456890.63,88.22,0,0,0,0,0
1564503456906.25,125.44,0,0,0,0,0
1564503456921.88,158.94,0,0,0,0,0
1564503456937.5,187.35,0,0,0,0,0
1564503456953.13,209.18,0,0,0,0,0
1564503456968.75,223.05,0,0,0,0,0
1564503456984.38,228.15,0,0,0,0,0
1564503457000,224.58,0,0,0,0,0
1564503457015.63,213.5,0,0,0,0,0
1564503457031.25,197.03,0,0,0,0,0
1564503457046.88,177.79,0,0,0,0,0
1564503457062.5,158.35,0,0,0,0,0
1564503457078.13,140.61,0,0,0,0,0
1564503457093.75,125.51,0,0,0,0,0
1564503457109.38,113.06,0,0,0,0,0
1564503457125,102.83,0,0,0,0,0
1564503457140.63,94.38,0,0,0,0,0
1564503457156.25,87.62,0,0,0,0,0
1564503457171.88,82.66,0,0,0,0,0
1564503457187.5,79.6,0,0,0,0,0
1564503457203.13,78.19,0,0,0,0,0
1564503457218.75,77.76,0,0,0,0,0
1564503457234.38,77.62,0,0,0,0,0
1564503457250,77.42,0,0,0,0,0
1564503457265.63,77.44,0,0,0,0,0
1564503457281.25,78.63,0,0,0,0,0
1564503457296.88,82.25,0,0,0,0,0
1564503457312.5,89.34,0,0,0,0,0
1564503457328.13,100.24,0,0,0,0,0
1564503457343.75,114.37,0,0,0,0,0
1564503457359.38,130.37,0,0,0,0,0
1564503457375,146.64,0,0,0,0,0
1564503457390.63,161.78,0,0,0,0,0
1564503457406.25,175.02,0,0,0,0,0
1564503457421.88,186.33,0,0,0,0,0
1564503457437.5,196.01,0,0,0,0,0
1564503457453.13,204.35,0,0,0,0,0
1564503457468.75,211.27,0,0,0,0,0
1564503457484.38,216.24,0,0,0,0,0
1564503457500,218.59,0,0,0,0,0
1564503457515.63,217.86,0,0,0,0,0
1564503457531.25,214.23,0,0,0,0,0
1564503457546.88,208.57,0,0,0,0,0
1564503457562.5,202.17,0,0,0,0,0
1564503457578.13,196.3,0,0,0,0,0
1564503457593.75,191.61,0,0,0,0,0
1564503457609.38,188.03,0,0,0,0,0
1564503457625,184.79,0,0,0,0,0
1564503457640.63,180.8,0,0,0,0,0
1564503457656.25,175.19,0,0,0,0,0
1564503457671.88,167.59,0,0,0,0,0
1564503457687.5,158.28,0,0,0,0,0
1564503457703.13,147.93,0,0,0,0,0
1564503457718.75,137.23,0,0,0,0,0
1564503457734.38,126.53,0,0,0,0,0
1564503457750,115.63,0,0,0,0,0
1564503457765.63,103.87,0,0,0,0,0
1564503457781.25,90.5,0,0,0,0,0
1564503457796.88,75.16,0,0,0,0,0
1564503457812.5,58.2,0,0,0,0,0
1564503457828.13,40.7,0,0,0,0,0
1564503457843.75,24.12,0,0,0,0,0
1564503457859.38,9.51,0,0,0,0,0
1564503457875,-3.09,0,0,0,0,0
1564503457890.63,-14.92,0,0,0,0,0
1564503457906.25,-28.12,0,0,0,0,0
1564503457921.88,-44.78,0,0,0,0,0
1564503457937.5,-65.94,0,0,0,0,0
1564503457953.13,-90.85,0,0,0,0,0
1564503457968.75,-117.18,0,0,0,0,0
1564503457984.38,-141.93,0,0,0,0,0
1564503458000,-162.76,0,0,0,0,0
1564503458015.63,-179.08,0,0,0,0,0
1564503458031.25,-192.38,0,0,0,0,0
1564503458046.88,-205.7,0,0,0,0,0
1564503458062.5,-222.43,0,0,0,0,0
1564503458078.13,-245.08,0,0,0,0,0
1564503458093.75,-274.25,0,0,0,0,0
1564503458109.38,-308.14,0,0,0,0,0
1564503458125,-342.68,0,0,0,0,0
1564503458140.63,-372.22,0,0,0,0,0
1564503458156.25,-390.96,0,0,0,0,0
1564503458171.88,-394.33,0,0,0,0,0
1564503458187.5,-380.33,0,0,0,0,0
1564503458203.13,-350.19,0,0,0,0,0
1564503458218.75,-308.37,0,0,0,0,0
1564503458234.38,-261.68,0,0,0,0,0
1564503458250,-217.61,0,0,0,0,0
1564503458265.63,-182.43,0,0,0,0,0
1564503458281.25,-159.33,0,0,0,0,0
1564503458296.88,-147.76,0,0,0,0,0
1564503458312.5,-144.03,0,0,0,0,0
1564503458328.13,-143.25,0,0,0,0,0
1564503458343.75,-141.42,0,0,0,0,0
1564503458359.38,-137.06,0,0,0,0,0
1564503458375,-131.11,0,0,0,0,0
1564503458390.63,-125.38,0,0,0,0,0
1564503458406.25,-120.59,0,0,0,0,0
1564503458421.88,-115.02,0,0,0,0,0
1564503458437.5,-105.47,0,0,0,0,0
1564503458453.13,-89.75,0,0,0,0,0
1564503458468.75,-69.43,0,0,0,0,0
1564503458484.38,-50.66,0,0,0,0,0
1564503458500,-42.43,0,0,0,0,0
1564503458515.63,-52.29,0,0,0,0,0
1564503458531.25,-82.49,0,0,0,0,0
1564503458546.88,-127.97,0,0,0,0,0
1564503458562.5,-177.76,0,0,0,0,0
1564503458578.13,-219.01,0,0,0,0,0
1564503458593.75,-241.73,0,0,0,0,0
1564503458609.38,-242.18,0,0,0,0,0
1564503458625,-223.53,0,0,0,0,0
1564503458640.63,-193.49,0,0,0,0,0
1564503458656.25,-160.33,0,0,0,0,0
1564503458671.88,-129.31,0,0,0,0,0
1564503458687.5,-100.85,0,0,0,0,0
1564503458703.13,-71.68,0,0,0,0,0
1564503458718.75,-37.83,0,0,0,0,0
1564503458734.38,2.15,0,0,0,0,0
1564503458750,45.38,0,0,0,0,0
1564503458765.63,85.59,0,0,0,0,0
1564503458781.25,116,0,0,0,0,0
1564503458796.88,132.67,0,0,0,0,0
1564503458812.5,136.2,0,0,0,0,0
1564503458828.13,130.89,0,0,0,0,0
1564503458843.75,121.97,0,0,0,0,0
1564503458859.38,112.7,0,0,0,0,0
1564503458875,103.3,0,0,0,0,0
1564503458890.63,92.09,0,0,0,0,0
1564503458906.25,78.04,0,0,0,0,0
1564503458921.88,62.8,0,0,0,0,0
1564503458937.5,50.86,0,0,0,0,0
1564503458953.13,47.53,0,0,0,0,0
1564503458968.75,56.25,0,0,0,0,0
1564503458984.38,76.64,0,0,0,0,0
1564503459000,104.43,0,0,0,0,0
1564503459015.63,133.24,0,0,0,0,0
1564503459031.25,157.11,0,0,0,0,0
1564503459046.88,172.61,0,0,0,0,0
1564503459062.5,179.56,0,0,0,0,0
1564503459078.13,180.36,0,0,0,0,0
1564503459093.75,178.38,0,0,0,0,0
1564503459109.38,176.31,0,0,0,0,0
1564503459125,175.08,0,0,0,0,0
1564503459140.63,173.84,0,0,0,0,0
1564503459156.25,170.65,0,0,0,0,0
1564503459171.88,163.59,0,0,0,0,0
1564503459187.5,151.75,0,0,0,0,0
1564503459203.13,135.33,0,0,0,0,0
1564503459218.75,115.15,0,0,0,0,0
1564503459234.38,91.83,0,0,0,0,0
1564503459250,65.25,0,0,0,0,0
1564503459265.63,34.68,0,0,0,0,0
1564503459281.25,-0.3,0,0,0,0,0
1564503459296.88,-39.09,0,0,0,0,0
1564503459312.5,-79.66,0,0,0,0,0
1564503459328.13,-119.14,0,0,0,0,0
1564503459343.75,-154.92,0,0,0,0,0
1564503459359.38,-185.55,0,0,0,0,0
1564503459375,-211.15,0,0,0,0,0
1564503459390.63,-232.89,0,0,0,0,0
1564503459406.25,-252.28,0,0,0,0,0
1564503459421.88,-270.24,0,0,0,0,0
1564503459437.5,-286.83,0,0,0,0,0
1564503459453.13,-301.19,0,0,0,0,0
1564503459468.75,-311.88,0,0,0,0,0
1564503459484.38,-317.24,0,0,0,0,0
1564503459500,-315.98,0,0,0,0,0
1564503459515.63,-307.69,0,0,0,0,0
1564503459531.25,-293.34,0,0,0,0,0
1564503459546.88,-275.51,0,0,0,0,0
1564503459562.5,-257.76,0,0,0,0,0
1564503459578.13,-243.43,0,0,0,0,0
1564503459593.75,-234.15,0,0,0,0,0
1564503459609.38,-228.74,0,0,0,0,0
1564503459625,-223.22,0,0,0,0,0
1564503459640.63,-212.11,0,0,0,0,0
1564503459656.25,-190.55,0,0,0,0,0
1564503459671.88,-156.27,0,0,0,0,0
1564503459687.5,-110.58,0,0,0,0,0
1564503459703.13,-57.87,0,0,0,0,0
1564503459718.75,-4.12,0,0,0,0,0
1564503459734.38,45.16,0,0,0,0,0
1564503459750,86.37,0,0,0,0,0
1564503459765.63,118.26,0,0,0,0,0
1564503459781.25,141.43,0,0,0,0,0
1564503459796.88,157.21,0,0,0,0,0
1564503459812.5,166.71,0,0,0,0,0
1564503459828.13,170.51,0,0,0,0,0
1564503459843.75,168.96,0,0,0,0,0
1564503459859.38,162.85,0,0,0,0,0
1564503459875,153.79,0,0,0,0,0
1564503459890.63,144.14,0,0,0,0,0
1564503459906.25,136.43,0,0,0,0,0
1564503459921.88,132.41,0,0,0,0,0
1564503459937.5,132.57,0,0,0,0,0
1564503459953.13,135.97,0,0,0,0,0
1564503459968.75,140.65,0,0,0,0,0
1564503459984.38,144.31,0,0,0,0,0
1564503460000,144.86,0,0,0,0,0
1564503460015.63,140.65,0,0,0,0,0
1564503460031.25,130.43,0,0,0,0,0
1564503460046.88,113.48,0,0,0,0,0
1564503460062.5,90.07,0,0,0,0,0
1564503460078.13,62.31,0,0,0,0,0
1564503460093.75,34.54,0,0,0,0,0
1564503460109.38,12.87,0,0,0,0,0
1564503460125,3.56,0,0,0,0,0
1564503460140.63,10.81,0,0,0,0,0
1564503460156.25,34.97,0,0,0,0,0
1564503460171.88,72.37,0,0,0,0,0
1564503460187.5,116.57,0,0,0,0,0
1564503460203.13,160.48,0,0,0,0,0
1564503460218.75,198.22,0,0,0,0,0
1564503460234.38,225.91,0,0,0,0,0
1564503460250,241.39,0,0,0,0,0
1564503460265.63,243.35,0,0,0,0,0
1564503460281.25,231.13,0,0,0,0,0
1564503460296.88,205,0,0,0,0,0
1564503460312.5,166.8,0,0,0,0,0
1564503460328.13,120.1,0,0,0,0,0
1564503460343.75,69.39,0,0,0,0,0
1564503460359.38,18.61,0,0,0,0,0
1564503460375,-30.37,0,0,0,0,0
1564503460390.63,-78.08,0,0,0,0,0
1564503460406.25,-126.49,0,0,0,0,0
1564503460421.88,-177.17,0,0,0,0,0
1564503460437.5,-229.53,0,0,0,0,0
1564503460453.13,-280.21,0,0,0,0,0
1564503460468.75,-324.11,0,0,0,0,0
1564503460484.38,-356.41,0,0,0,0,0
1564503460500,-374.74,0,0,0,0,0
1564503460515.63,-380.1,0,0,0,0,0
1564503460531.25,-376.04,0,0,0,0,0
1564503460546.88,-366.56,0,0,0,0,0
1564503460562.5,-353.94,0,0,0,0,0
1564503460578.13,-337.47,0,0,0,0,0
1564503460593.75,-314.31,0,0,0,0,0
1564503460609.38,-281.33,0,0,0,0,0
1564503460625,-237.2,0,0,0,0,0
1564503460640.63,-183.25,0,0,0,0,0
1564503460656.25,-122.85,0,0,0,0,0
1564503460671.88,-59.92,0,0,0,0,0
1564503460687.5,2.44,0,0,0,0,0
1564503460703.13,62.37,0,0,0,0,0
1564503460718.75,118.73,0,0,0,0,0
1564503460734.38,170.37,0,0,0,0,0
1564503460750,215.64,0,0,0,0,0
1564503460765.63,252.6,0,0,0,0,0
1564503460781.25,279.48,0,0,0,0,0
1564503460796.88,295.25,0,0,0,0,0
1564503460812.5,299.66,0,0,0,0,0
1564503460828.13,293.18,0,0,0,0,0
1564503460843.75,276.89,0,0,0,0,0
1564503460859.38,252.7,0,0,0,0,0
1564503460875,223.42,0,0,0,0,0
1564503460890.63,192.55,0,0,0,0,0
1564503460906.25,163.74,0,0,0,0,0
1564503460921.88,139.89,0,0,0,0,0
1564503460937.5,122.45,0,0,0,0,0
1564503460953.13,111.08,0,0,0,0,0
1564503460968.75,103.83,0,0,0,0,0
1564503460984.38,97.66,0,0,0,0,0
1564503461000,89.36,0,0,0,0,0
1564503461015.63,76.59,0,0,0,0,0
1564503461031.25,59.26,0,0,0,0,0
1564503461046.88,40.35,0,0,0,0,0
1564503461062.5,25.83,0,0,0,0,0
1564503461078.13,23.03,0,0,0,0,0
1564503461093.75,37.71,0,0,0,0,0
1564503461109.38,71.11,0,0,0,0,0
1564503461125,118.39,0,0,0,0,0
1564503461140.63,169.64,0,0,0,0,0
1564503461156.25,213.09,0,0,0,0,0
1564503461171.88,239.36,0,0,0,0,0
1564503461187.5,244.41,0,0,0,0,0
1564503461203.13,230.01,0,0,0,0,0
1564503461218.75,201.55,0,0,0,0,0
1564503461234.38,164.98,0,0,0,0,0
1564503461250,124.5,0,0,0,0,0
1564503461265.63,82.11,0,0,0,0,0
1564503461281.25,38.96,0,0,0,0,0
1564503461296.88,-3.1,0,0,0,0,0
1564503461312.5,-41.08,0,0,0,0,0
1564503461328.13,-71.91,0,0,0,0,0
1564503461343.75,-94.18,0,0,0,0,0
1564503461359.38,-109.43,0,0,0,0,0
1564503461375,-122.17,0,0,0,0,0
1564503461390.63,-138.54,0,0,0,0,0
1564503461406.25,-164.37,0,0,0,0,0
1564503461421.88,-203.34,0,0,0,0,0
1564503461437.5,-256.02,0,0,0,0,0
1564503461453.13,-319.54,0,0,0,0,0
1564503461468.75,-388.17,0,0,0,0,0
1564503461484.38,-454.5,0,0,0,0,0
1564503461500,-511.16,0,0,0,0,0
1564503461515.63,-552.7,0,0,0,0,0
1564503461531.25,-576.86,0,0,0,0,0
1564503461546.88,-585.02,0,0,0,0,0
1564503461562.5,-581.03,0,0,0,0,0
1564503461578.13,-569.43,0,0,0,0,0
1564503461593.75,-553.66,0,0,0,0,0
1564503461609.38,-535.41,0,0,0,0,0
1564503461625,-515.02,0,0,0,0,0
1564503461640.63,-492.65,0,0,0,0,0
1564503461656.25,-469.16,0,0,0,0,0
1564503461671.88,-446.06,0,0,0,0,0
1564503461687.5,-424.83,0,0,0,0,0
1564503461703.13,-405.94,0,0,0,0,0
1564503461718.75,-388.55,0,0,0,0,0
1564503461734.38,-370.85,0,0,0,0,0
1564503461750,-351.02,0,0,0,0,0
1564503461765.63,-328.17,0,0,0,0,0
1564503461781.25,-302.77,0,0,0,0,0
1564503461796.88,-276.41,0,0,0,0,0
1564503461812.5,-250.96,0,0,0,0,0
1564503461828.13,-227.78,0,0,0,0,0
1564503461843.75,-207.1,0,0,0,0,0
1564503461859.38,-188.04,0,0,0,0,0
1564503461875,-169.05,0,0,0,0,0
1564503461890.63,-148.68,0,0,0,0,0
1564503461906.25,-126.19,0,0,0,0,0
1564503461921.88,-101.88,0,0,0,0,0
1564503461937.5,-76.92,0,0,0,0,0
1564503461953.13,-52.88,0,0,0,0,0
1564503461968.75,-31.07,0,0,0,0,0
1564503461984.38,-12.01,0,0,0,0,0
1564503462000,4.73,0,0,0,0,0
1564503462015.63,20.33,0,0,0,0,0
1564503462031.25,36.13,0,0,0,0,0
1564503462046.88,53.14,0,0,0,0,0
1564503462062.5,71.55,0,0,0,0,0
1564503462078.13,90.67,0,0,0,0,0
1564503462093.75,109.39,0,0,0,0,0
1564503462109.38,126.55,0,0,0,0,0
1564503462125,141.73,0,0,0,0,0
1564503462140.63,155.44,0,0,0,0,0
1564503462156.25,169.04,0,0,0,0,0
1564503462171.88,184.16,0,0,0,0,0
1564503462187.5,202.11,0,0,0,0,0
1564503462203.13,223.11,0,0,0,0,0
1564503462218.75,246.23,0,0,0,0,0
1564503462234.38,269.82,0,0,0,0,0
1564503462250,292.06,0,0,0,0,0
1564503462265.63,311.83,0,0,0,0,0
1564503462281.25,329.15,0,0,0,0,0
1564503462296.88,345.13,0,0,0,0,0
1564503462312.5,361.58,0,0,0,0,0
1564503462328.13,380.62,0,0,0,0,0
1564503462343.75,404.14,0,0,0,0,0
1564503462359.38,433.25,0,0,0,0,0
1564503462375,467.6,0,0,0,0,0
1564503462390.63,504.83,0,0,0,0,0
1564503462406.25,540.6,0,0,0,0,0
1564503462421.88,569.42,0,0,0,0,0
1564503462437.5,586.2,0,0,0,0,0
1564503462453.13,587.9,0,0,0,0,0
1564503462468.75,574.97,0,0,0,0,0
1564503462484.38,551.22,0,0,0,0,0
1564503462500,522.42,0,0,0,0,0
1564503462515.63,494.05,0,0,0,0,0
1564503462531.25,468.88,0,0,0,0,0
1564503462546.88,445.97,0,0,0,0,0
1564503462562.5,421.3,0,0,0,0,0
1564503462578.13,389.83,0,0,0,0,0
1564503462593.75,348.64,0,0,0,0,0
1564503462609.38,298.98,0,0,0,0,0
1564503462625,246.35,0,0,0,0,0
1564503462640.63,198.32,0,0,0,0,0
1564503462656.25,161.38,0,0,0,0,0
1564503462671.88,138.52,0,0,0,0,0
1564503462687.5,128.86,0,0,0,0,0
1564503462703.13,129.12,0,0,0,0,0
1564503462718.75,135.15,0,0,0,0,0
1564503462734.38,143.6,0,0,0,0,0
1564503462750,151.99,0,0,0,0,0
1564503462765.63,158.13,0,0,0,0,0
1564503462781.25,159.5,0,0,0,0,0
1564503462796.88,153.59,0,0,0,0,0
1564503462812.5,139.03,0,0,0,0,0
1564503462828.13,117.01,0,0,0,0,0
1564503462843.75,91.33,0,0,0,0,0
1564503462859.38,66.17,0,0,0,0,0
1564503462875,43.92,0,0,0,0,0
1564503462890.63,23.87,0,0,0,0,0
1564503462906.25,2.77,0,0,0,0,0
1564503462921.88,-23.22,0,0,0,0,0
1564503462937.5,-56.56,0,0,0,0,0
1564503462953.13,-97.1,0,0,0,0,0
1564503462968.75,-141.77,0,0,0,0,0
1564503462984.38,-185.51,0,0,0,0,0
1564503463000,-223.72,0,0,0,0,0
1564503463015.63,-253.4,0,0,0,0,0
1564503463031.25,-273.67,0,0,0,0,0
1564503463046.88,-285.1,0,0,0,0,0
1564503463062.5,-288.16,0,0,0,0,0
1564503463078.13,-283.23,0,0,0,0,0
1564503463093.75,-272.23,0,0,0,0,0
1564503463109.38,-260.62,0,0,0,0,0
1564503463125,-251.62,0,0,0,0,0
1564503463140.63,-247.11,0,0,0,0,0
1564503463156.25,-247.06,0,0,0,0,0
1564503463171.88,-251.11,0,0,0,0,0
1564503463187.5,-258.12,0,0,0,0,0
1564503463203.13,-266.04,0,0,0,0,0
1564503463218.75,-272.4,0,0,0,0,0
1564503463234.38,-274.61,0,0,0,0,0
1564503463250,-270.18,0,0,0,0,0
1564503463265.63,-257.03,0,0,0,0,0
1564503463281.25,-234.58,0,0,0,0,0
1564503463296.88,-203.9,0,0,0,0,0
1564503463312.5,-167.3,0,0,0,0,0
1564503463328.13,-127.59,0,0,0,0,0
1564503463343.75,-87.6,0,0,0,0,0
1564503463359.38,-49.98,0,0,0,0,0
1564503463375,-17.13,0,0,0,0,0
1564503463390.63,9.14,0,0,0,0,0
1564503463406.25,27.94,0,0,0,0,0
1564503463421.88,38.96,0,0,0,0,0
1564503463437.5,42.81,0,0,0,0,0
1564503463453.13,41.04,0,0,0,0,0
1564503463468.75,36.11,0,0,0,0,0
1564503463484.38,30.76,0,0,0,0,0
1564503463500,27.16,0,0,0,0,0
1564503463515.63,26.33,0,0,0,0,0
1564503463531.25,28.07,0,0,0,0,0
1564503463546.88,31.49,0,0,0,0,0
1564503463562.5,35.36,0,0,0,0,0
1564503463578.13,38.96,0,0,0,0,0
1564503463593.75,42.38,0,0,0,0,0
1564503463609.38,46.53,0,0,0,0,0
1564503463625,52.31,0,0,0,0,0
1564503463640.63,59.78,0,0,0,0,0
1564503463656.25,67.68,0,0,0,0,0
1564503463671.88,73.86,0,0,0,0,0
1564503463687.5,76.16,0,0,0,0,0
1564503463703.13,73.32,0,0,0,0,0
1564503463718.75,65.52,0,0,0,0,0
1564503463734.38,54.44,0,0,0,0,0
1564503463750,42.56,0,0,0,0,0
1564503463765.63,32.18,0,0,0,0,0
1564503463781.25,24.59,0,0,0,0,0
1564503463796.88,19.76,0,0,0,0,0
1564503463812.5,16.7,0,0,0,0,0
1564503463828.13,14.1,0,0,0,0,0
1564503463843.75,11.04,0,0,0,0,0
1564503463859.38,7.32,0,0,0,0,0
1564503463875,3.49,0,0,0,0,0
1564503463890.63,0.52,0,0,0,0,0
1564503463906.25,-0.7,0,0,0,0,0
1564503463921.88,0.29,0,0,0,0,0
1564503463937.5,3.46,0,0,0,0,0
1564503463953.13,8.54,0,0,0,0,0
1564503463968.75,15.3,0,0,0,0,0
1564503463984.38,23.77,0,0,0,0,0
1564503464000,34.02,0,0,0,0,0
1564503464015.63,45.8,0,0,0,0,0
1564503464031.25,58.19,0,0,0,0,0
1564503464046.88,69.55,0,0,0,0,0
1564503464062.5,78.02,0,0,0,0,0
1564503464078.13,82.18,0,0,0,0,0
1564503464093.75,81.69,0,0,0,0,0
1564503464109.38,77.41,0,0,0,0,0
1564503464125,70.98,0,0,0,0,0
1564503464140.63,64.02,0,0,0,0,0
1564503464156.25,57.54,0,0,0,0,0
1564503464171.88,51.67,0,0,0,0,0
1564503464187.5,46.01,0,0,0,0,0
1564503464203.13,40.1,0,0,0,0,0
1564503464218.75,33.77,0,0,0,0,0
1564503464234.38,27.25,0,0,0,0,0
1564503464250,20.85,0,0,0,0,0
1564503464265.63,14.62,0,0,0,0,0
1564503464281.25,8.3,0,0,0,0,0
1564503464296.88,1.4,0,0,0,0,0
1564503464312.5,-6.44,0,0,0,0,0
1564503464328.13,-15.14,0,0,0,0,0
1564503464343.75,-24.12,0,0,0,0,0
1564503464359.38,-32.48,0,0,0,0,0
1564503464375,-39.31,0,0,0,0,0
1564503464390.63,-43.94,0,0,0,0,0
1564503464406.25,-46.1,0,0,0,0,0
1564503464421.88,-45.85,0,0,0,0,0
1564503464437.5,-43.42,0,0,0,0,0
1564503464453.13,-39.14,0,0,0,0,0
1564503464468.75,-33.29,0,0,0,0,0
1564503464484.38,-26.21,0,0,0,0,0
1564503464500,-18.28,0,0,0,0,0
1564503464515.63,-10.03,0,0,0,0,0
1564503464531.25,-2.06,0,0,0,0,0
1564503464546.88,5.02,0,0,0,0,0
1564503464562.5,10.73,0,0,0,0,0
1564503464578.13,14.74,0,0,0,0,0
1564503464593.75,16.78,0,0,0,0,0
1564503464609.38,16.61,0,0,0,0,0
1564503464625,14,0,0,0,0,0
1564503464640.63,8.91,0,0,0,0,0
1564503464656.25,1.73,0,0,0,0,0
1564503464671.88,-6.63,0,0,0,0,0
1564503464687.5,-14.92,0,0,0,0,0
1564503464703.13,-21.91,0,0,0,0,0
1564503464718.75,-26.93,0,0,0,0,0
1564503464734.38,-30.13,0,0,0,0,0
1564503464750,-32.29,0,0,0,0,0
1564503464765.63,-34.47,0,0,0,0,0
1564503464781.25,-37.39,0,0,0,0,0
1564503464796.88,-41.13,0,0,0,0,0
1564503464812.5,-45.26,0,0,0,0,0
1564503464828.13,-49.05,0,0,0,0,0
1564503464843.75,-51.79,0,0,0,0,0
1564503464859.38,-52.95,0,0,0,0,0
1564503464875,-52.06,0,0,0,0,0
1564503464890.63,-48.69,0,0,0,0,0
1564503464906.25,-42.56,0,0,0,0,0
1564503464921.88,-33.78,0,0,0,0,0
1564503464937.5,-23.06,0,0,0,0,0
1564503464953.13,-11.73,0,0,0,0,0
1564503464968.75,-1.33,0,0,0,0,0
1564503464984.38,6.88,0,0,0,0,0
1564503465000,12.33,0,0,0,0,0
1564503465015.63,15.26,0,0,0,0,0
1564503465031.25,16.41,0,0,0,0,0
1564503465046.88,16.57,0,0,0,0,0
1564503465062.5,16.12,0,0,0,0,0
1564503465078.13,14.98,0,0,0,0,0
1564503465093.75,12.79,0,0,0,0,0
1564503465109.38,9.2,0,0,0,0,0
1564503465125,4.14,0,0,0,0,0
1564503465140.63,-2.13,0,0,0,0,0
1564503465156.25,-9.14,0,0,0,0,0
1564503465171.88,-16.35,0,0,0,0,0
1564503465187.5,-23.26,0,0,0,0,0
1564503465203.13,-29.42,0,0,0,0,0
1564503465218.75,-34.45,0,0,0,0,0
1564503465234.38,-38.22,0,0,0,0,0
1564503465250,-41.01,0,0,0,0,0
1564503465265.63,-43.51,0,0,0,0,0
1564503465281.25,-46.59,0,0,0,0,0
1564503465296.88,-50.78,0,0,0,0,0
1564503465312.5,-55.71,0,0,0,0,0
1564503465328.13,-59.88,0,0,0,0,0
1564503465343.75,-61.14,0,0,0,0,0
1564503465359.38,-57.46,0,0,0,0,0
1564503465375,-47.76,0,0,0,0,0
1564503465390.63,-32.15,0,0,0,0,0
1564503465406.25,-11.57,0,0,0,0,0
1564503465421.88,12.78,0,0,0,0,0
1564503465437.5,39.82,0,0,0,0,0
1564503465453.13,68.39,0,0,0,0,0
1564503465468.75,96.67,0,0,0,0,0
1564503465484.38,121.91,0,0,0,0,0
1564503465500,140.91,0,0,0,0,0
1564503465515.63,150.94,0,0,0,0,0
1564503465531.25,151,0,0,0,0,0
1564503465546.88,142.04,0,0,0,0,0
1564503465562.5,126.13,0,0,0,0,0
1564503465578.13,104.97,0,0,0,0,0
1564503465593.75,78.75,0,0,0,0,0
1564503465609.38,46.12,0,0,0,0,0
1564503465625,5.58,0,0,0,0,0
1564503465640.63,-42.73,0,0,0,0,0
1564503465656.25,-96.14,0,0,0,0,0
1564503465671.88,-150.03,0,0,0,0,0
1564503465687.5,-199.74,0,0,0,0,0
1564503465703.13,-242.33,0,0,0,0,0
1564503465718.75,-277.18,0,0,0,0,0
1564503465734.38,-304.99,0,0,0,0,0
1564503465750,-326,0,0,0,0,0
1564503465765.63,-338.85,0,0,0,0,0
1564503465781.25,-340.85,0,0,0,0,0
1564503465796.88,-329.73,0,0,0,0,0
1564503465812.5,-305.54,0,0,0,0,0
1564503465828.13,-271.36,0,0,0,0,0
1564503465843.75,-232.43,0,0,0,0,0
1564503465859.38,-194.02,0,0,0,0,0
1564503465875,-159.37,0,0,0,0,0
1564503465890.63,-128.8,0,0,0,0,0
1564503465906.25,-100.17,0,0,0,0,0
1564503465921.88,-70.34,0,0,0,0,0
1564503465937.5,-36.54,0,0,0,0,0
1564503465953.13,2.42,0,0,0,0,0
1564503465968.75,45.59,0,0,0,0,0
1564503465984.38,89.69,0,0,0,0,0
1564503466000,129.65,0,0,0,0,0
1564503466015.63,159.65,0,0,0,0,0
1564503466031.25,174.98,0,0,0,0,0
1564503466046.88,173.79,0,0,0,0,0
1564503466062.5,157.96,0,0,0,0,0
1564503466078.13,132.58,0,0,0,0,0
1564503466093.75,104.14,0,0,0,0,0
1564503466109.38,78.26,0,0,0,0,0
1564503466125,58.05,0,0,0,0,0
1564503466140.63,43.83,0,0,0,0,0
1564503466156.25,33.83,0,0,0,0,0
1564503466171.88,25.65,0,0,0,0,0
1564503466187.5,17.21,0,0,0,0,0
1564503466203.13,7.34,0,0,0,0,0
1564503466218.75,-3.98,0,0,0,0,0
1564503466234.38,-15.62,0,0,0,0,0
1564503466250,-25.34,0,0,0,0,0
1564503466265.63,-29.98,0,0,0,0,0
1564503466281.25,-26.33,0,0,0,0,0
1564503466296.88,-12.21,0,0,0,0,0
1564503466312.5,12.47,0,0,0,0,0
1564503466328.13,45.33,0,0,0,0,0
1564503466343.75,82.05,0,0,0,0,0
1564503466359.38,117.52,0,0,0,0,0
1564503466375,147.29,0,0,0,0,0
1564503466390.63,168.41,0,0,0,0,0
1564503466406.25,179.73,0,0,0,0,0
1564503466421.88,181.49,0,0,0,0,0
1564503466437.5,174.68,0,0,0,0,0
1564503466453.13,160.56,0,0,0,0,0
1564503466468.75,140.48,0,0,0,0,0
1564503466484.38,115.96,0,0,0,0,0
1564503466500,88.94,0,0,0,0,0
1564503466515.63,61.91,0,0,0,0,0
1564503466531.25,37.64,0,0,0,0,0
1564503466546.88,18.77,0,0,0,0,0
1564503466562.5,7.18,0,0,0,0,0
1564503466578.13,3.59,0,0,0,0,0
1564503466593.75,7.43,0,0,0,0,0
1564503466609.38,17.05,0,0,0,0,0
1564503466625,30.06,0,0,0,0,0
1564503466640.63,43.61,0,0,0,0,0
1564503466656.25,54.84,0,0,0,0,0
1564503466671.88,61.35,0,0,0,0,0
1564503466687.5,62.03,0,0,0,0,0
1564503466703.13,57.83,0,0,0,0,0
1564503466718.75,52.09,0,0,0,0,0
1564503466734.38,49.88,0,0,0,0,0
1564503466750,56.41,0,0,0,0,0
1564503466765.63,74.92,0,0,0,0,0
1564503466781.25,105.2,0,0,0,0,0
1564503466796.88,143.29,0,0,0,0,0
1564503466812.5,182.8,0,0,0,0,0
1564503466828.13,217.16,0,0,0,0,0
1564503466843.75,241.7,0,0,0,0,0
1564503466859.38,254.89,0,0,0,0,0
1564503466875,258.04,0,0,0,0,0
1564503466890.63,254.07,0,0,0,0,0
1564503466906.25,245.98,0,0,0,0,0
1564503466921.88,235.76,0,0,0,0,0
1564503466937.5,224.02,0,0,0,0,0
1564503466953.13,210.34,0,0,0,0,0
1564503466968.75,194.01,0,0,0,0,0
1564503466984.38,174.58,0,0,0,0,0
1564503467000,152.29,0,0,0,0,0
1564503467015.63,128.03,0,0,0,0,0
1564503467031.25,103.13,0,0,0,0,0
1564503467046.88,79.21,0,0,0,0,0
1564503467062.5,58.21,0,0,0,0,0
1564503467078.13,42.2,0,0,0,0,0
1564503467093.75,32.89,0,0,0,0,0
1564503467109.38,30.42,0,0,0,0,0
1564503467125,32.32,0,0,0,0,0
1564503467140.63,33.29,0,0,0,0,0
1564503467156.25,26.74,0,0,0,0,0
1564503467171.88,7.68,0,0,0,0,0
1564503467187.5,-24.33,0,0,0,0,0
1564503467203.13,-64,0,0,0,0,0
1564503467218.75,-101.94,0,0,0,0,0
1564503467234.38,-128.38,0,0,0,0,0
1564503467250,-137.25,0,0,0,0,0
1564503467265.63,-128.39,0,0,0,0,0
1564503467281.25,-106.72,0,0,0,0,0
1564503467296.88,-79.23,0,0,0,0,0
1564503467312.5,-51.68,0,0,0,0,0
1564503467328.13,-26.74,0,0,0,0,0
1564503467343.75,-4.46,0,0,0,0,0
1564503467359.38,16.03,0,0,0,0,0
1564503467375,34.89,0,0,0,0,0
1564503467390.63,51.09,0,0,0,0,0
1564503467406.25,63.2,0,0,0,0,0
1564503467421.88,70.42,0,0,0,0,0
1564503467437.5,73.21,0,0,0,0,0
1564503467453.13,72.96,0,0,0,0,0
1564503467468.75,71.12,0,0,0,0,0
1564503467484.38,68.31,0,0,0,0,0
1564503467500,63.98,0,0,0,0,0
1564503467515.63,56.65,0,0,0,0,0
1564503467531.25,44.91,0,0,0,0,0
1564503467546.88,28.43,0,0,0,0,0
1564503467562.5,8.83,0,0,0,0,0
1564503467578.13,-10.46,0,0,0,0,0
1564503467593.75,-25.3,0,0,0,0,0
1564503467609.38,-32.84,0,0,0,0,0
1564503467625,-33.16,0,0,0,0,0
1564503467640.63,-29.95,0,0,0,0,0
1564503467656.25,-29.1,0,0,0,0,0
1564503467671.88,-36.09,0,0,0,0,0
1564503467687.5,-53.23,0,0,0,0,0
1564503467703.13,-78.25,0,0,0,0,0
1564503467718.75,-105.15,0,0,0,0,0
1564503467734.38,-126.69,0,0,0,0,0
1564503467750,-137.04,0,0,0,0,0
1564503467765.63,-133.15,0,0,0,0,0
1564503467781.25,-114.59,0,0,0,0,0
1564503467796.88,-82.41,0,0,0,0,0
1564503467812.5,-38.34,0,0,0,0,0
1564503467828.13,14.96,0,0,0,0,0
1564503467843.75,73.02,0,0,0,0,0
1564503467859.38,129.13,0,0,0,0,0
1564503467875,175.28,0,0,0,0,0
1564503467890.63,204.52,0,0,0,0,0
1564503467906.25,213.57,0,0,0,0,0
1564503467921.88,204.17,0,0,0,0,0
1564503467937.5,182.28,0,0,0,0,0
1564503467953.13,155.62,0,0,0,0,0
1564503467968.75,130.68,0,0,0,0,0
1564503467984.38,110.86,0,0,0,0,0
1564503468000,96.45,0,0,0,0,0
1564503468015.63,85.94,0,0,0,0,0
1564503468031.25,77.71,0,0,0,0,0
1564503468046.88,71.2,0,0,0,0,0
1564503468062.5,66.67,0,0,0,0,0
1564503468078.13,64.42,0,0,0,0,0
1564503468093.75,63.71,0,0,0,0,0
1564503468109.38,62.46,0,0,0,0,0
1564503468125,57.75,0,0,0,0,0
1564503468140.63,46.86,0,0,0,0,0
1564503468156.25,28.41,0,0,0,0,0
1564503468171.88,2.86,0,0,0,0,0
1564503468187.5,-27.42,0,0,0,0,0
1564503468203.13,-58.86,0,0,0,0,0
1564503468218.75,-87.58,0,0,0,0,0
1564503468234.38,-110.27,0,0,0,0,0
1564503468250,-124.88,0,0,0,0,0
1564503468265.63,-130.85,0,0,0,0,0
1564503468281.25,-129.1,0,0,0,0,0
1564503468296.88,-121.5,0,0,0,0,0
1564503468312.5,-110.47,0,0,0,0,0
1564503468328.13,-98.44,0,0,0,0,0
1564503468343.75,-87.64,0,0,0,0,0
1564503468359.38,-79.97,0,0,0,0,0
1564503468375,-76.93,0,0,0,0,0
1564503468390.63,-79.51,0,0,0,0,0
1564503468406.25,-87.86,0,0,0,0,0
1564503468421.88,-101.11,0,0,0,0,0
1564503468437.5,-117.23,0,0,0,0,0
1564503468453.13,-133.44,0,0,0,0,0
1564503468468.75,-146.92,0,0,0,0,0
1564503468484.38,-155.74,0,0,0,0,0
1564503468500,-159.36,0,0,0,0,0
1564503468515.63,-158.58,0,0,0,0,0
1564503468531.25,-155.08,0,0,0,0,0
1564503468546.88,-150.55,0,0,0,0,0
1564503468562.5,-146.11,0,0,0,0,0
1564503468578.13,-141.93,0,0,0,0,0
1564503468593.75,-137.2,0,0,0,0,0
1564503468609.38,-130.37,0,0,0,0,0
1564503468625,-119.4,0,0,0,0,0
1564503468640.63,-102.34,0,0,0,0,0
1564503468656.25,-77.92,0,0,0,0,0
1564503468671.88,-46.1,0,0,0,0,0
1564503468687.5,-8.5,0,0,0,0,0
1564503468703.13,31.79,0,0,0,0,0
1564503468718.75,70.92,0,0,0,0,0
1564503468734.38,105.17,0,0,0,0,0
1564503468750,131.88,0,0,0,0,0
1564503468765.63,149.91,0,0,0,0,0
1564503468781.25,159.41,0,0,0,0,0
1564503468796.88,161.43,0,0,0,0,0
1564503468812.5,157.27,0,0,0,0,0
1564503468828.13,148.24,0,0,0,0,0
1564503468843.75,135.44,0,0,0,0,0
1564503468859.38,119.82,0,0,0,0,0
1564503468875,102.21,0,0,0,0,0
1564503468890.63,83.31,0,0,0,0,0
1564503468906.25,63.72,0,0,0,0,0
1564503468921.88,44.1,0,0,0,0,0
1564503468937.5,25.29,0,0,0,0,0
1564503468953.13,8.32,0,0,0,0,0
1564503468968.75,-5.73,0,0,0,0,0
1564503468984.38,-16.1,0,0,0,0,0
1564503469000,-22.69,0,0,0,0,0
1564503469015.63,-26.26,0,0,0,0,0
1564503469031.25,-28.28,0,0,0,0,0
1564503469046.88,-30.65,0,0,0,0,0
1564503469062.5,-35.06,0,0,0,0,0
1564503469078.13,-42.57,0,0,0,0,0
1564503469093.75,-53.13,0,0,0,0,0
1564503469109.38,-65.4,0,0,0,0,0
1564503469125,-76.93,0,0,0,0,0
1564503469140.63,-84.78,0,0,0,0,0
1564503469156.25,-86.32,0,0,0,0,0
1564503469171.88,-80.18,0,0,0,0,0
1564503469187.5,-66.79,0,0,0,0,0
1564503469203.13,-48.32,0,0,0,0,0
1564503469218.75,-28.09,0,0,0,0,0
1564503469234.38,-9.56,0,0,0,0,0
1564503469250,4.54,0,0,0,0,0
1564503469265.63,12.69,0,0,0,0,0
1564503469281.25,14.62,0,0,0,0,0
1564503469296.88,10.93,0,0,0,0,0
1564503469312.5,2.63,0,0,0,0,0
1564503469328.13,-9.18,0,0,0,0,0
1564503469343.75,-23.51,0,0,0,0,0
1564503469359.38,-39.51,0,0,0,0,0
1564503469375,-56.3,0,0,0,0,0
1564503469390.63,-72.9,0,0,0,0,0
1564503469406.25,-88.15,0,0,0,0,0
1564503469421.88,-100.73,0,0,0,0,0
1564503469437.5,-109.37,0,0,0,0,0
1564503469453.13,-113.26,0,0,0,0,0
1564503469468.75,-112.22,0,0,0,0,0
1564503469484.38,-106.88,0,0,0,0,0
1564503469500,-98.6,0,0,0,0,0
1564503469515.63,-89.2,0,0,0,0,0
1564503469531.25,-80.59,0,0,0,0,0
1564503469546.88,-74.42,0,0,0,0,0
1564503469562.5,-71.65,0,0,0,0,0
1564503469578.13,-72.15,0,0,0,0,0
1564503469593.75,-74.51,0,0,0,0,0
1564503469609.38,-76.25,0,0,0,0,0
1564503469625,-74.42,0,0,0,0,0
1564503469640.63,-66.62,0,0,0,0,0
1564503469656.25,-51.88,0,0,0,0,0
1564503469671.88,-31.2,0,0,0,0,0
1564503469687.5,-7.37,0,0,0,0,0
1564503469703.13,15.88,0,0,0,0,0
1564503469718.75,35.02,0,0,0,0,0
1564503469734.38,47.65,0,0,0,0,0
1564503469750,53.02,0,0,0,0,0
1564503469765.63,51.82,0,0,0,0,0
1564503469781.25,45.52,0,0,0,0,0
1564503469796.88,35.53,0,0,0,0,0
1564503469812.5,22.51,0,0,0,0,0
1564503469828.13,6.2,0,0,0,0,0
1564503469843.75,-14.12,0,0,0,0,0
1564503469859.38,-38.83,0,0,0,0,0
1564503469875,-67.18,0,0,0,0,0
1564503469890.63,-97.08,0,0,0,0,0
1564503469906.25,-125.6,0,0,0,0,0
1564503469921.88,-150.05,0,0,0,0,0
1564503469937.5,-169.02,0,0,0,0,0
1564503469953.13,-182.76,0,0,0,0,0
1564503469968.75,-192.76,0,0,0,0,0
1564503469984.38,-200.7,0,0,0,0,0
1564503470000,-207.59,0,0,0,0,0
1564503470015.63,-213.57,0,0,0,0,0
1564503470031.25,-218.34,0,0,0,0,0
1564503470046.88,-221.93,0,0,0,0,0
1564503470062.5,-224.75,0,0,0,0,0
1564503470078.13,-227.17,0,0,0,0,0
1564503470093.75,-228.44,0,0,0,0,0
1564503470109.38,-226.3,0,0,0,0,0
1564503470125,-217.38,0,0,0,0,0
1564503470140.63,-198.57,0,0,0,0,0
1564503470156.25,-168.69,0,0,0,0,0
1564503470171.88,-129.37,0,0,0,0,0
1564503470187.5,-84.83,0,0,0,0,0
1564503470203.13,-40.46,0,0,0,0,0
1564503470218.75,-1.19,0,0,0,0,0
1564503470234.38,29.77,0,0,0,0,0
1564503470250,51.23,0,0,0,0,0
1564503470265.63,63.54,0,0,0,0,0
1564503470281.25,67.91,0,0,0,0,0
1564503470296.88,65.87,0,0,0,0,0
1564503470312.5,59.12,0,0,0,0,0
1564503470328.13,49.64,0,0,0,0,0
1564503470343.75,39.64,0,0,0,0,0
1564503470359.38,31.3,0,0,0,0,0
1564503470375,26.27,0,0,0,0,0
1564503470390.63,25.31,0,0,0,0,0
1564503470406.25,28.11,0,0,0,0,0
1564503470421.88,33.55,0,0,0,0,0
1564503470437.5,40.18,0,0,0,0,0
1564503470453.13,46.76,0,0,0,0,0
1564503470468.75,52.48,0,0,0,0,0
1564503470484.38,57.04,0,0,0,0,0
1564503470500,60.38,0,0,0,0,0
1564503470515.63,62.31,0,0,0,0,0
1564503470531.25,62.35,0,0,0,0,0
1564503470546.88,59.88,0,0,0,0,0
1564503470562.5,54.7,0,0,0,0,0
1564503470578.13,47.67,0,0,0,0,0
1564503470593.75,41.03,0,0,0,0,0
1564503470609.38,38.03,0,0,0,0,0
1564503470625,41.86,0,0,0,0,0
1564503470640.63,54.27,0,0,0,0,0
1564503470656.25,74.61,0,0,0,0,0
1564503470671.88,99.74,0,0,0,0,0
1564503470687.5,125.08,0,0,0,0,0
1564503470703.13,146.27,0,0,0,0,0
1564503470718.75,160.58,0,0,0,0,0
1564503470734.38,167.48,0,0,0,0,0
1564503470750,168.21,0,0,0,0,0
1564503470765.63,164.62,0,0,0,0,0
1564503470781.25,158.16,0,0,0,0,0
1564503470796.88,149.41,0,0,0,0,0
1564503470812.5,138.24,0,0,0,0,0
1564503470828.13,124.42,0,0,0,0,0
1564503470843.75,108.04,0,0,0,0,0
1564503470859.38,89.77,0,0,0,0,0
1564503470875,70.66,0,0,0,0,0
1564503470890.63,51.96,0,0,0,0,0
1564503470906.25,34.8,0,0,0,0,0
1564503470921.88,20.07,0,0,0,0,0
1564503470937.5,8.3,0,0,0,0,0
1564503470953.13,-0.52,0,0,0,0,0
1564503470968.75,-6.89,0,0,0,0,0
1564503470984.38,-11.9,0,0,0,0,0
1564503471000,-17,0,0,0,0,0
1564503471015.63,-23.83,0,0,0,0,0
1564503471031.25,-33.74,0,0,0,0,0
1564503471046.88,-47.19,0,0,0,0,0
1564503471062.5,-63.17,0,0,0,0,0
1564503471078.13,-78.9,0,0,0,0,0
1564503471093.75,-90.24,0,0,0,0,0
1564503471109.38,-92.8,0,0,0,0,0
1564503471125,-83.59,0,0,0,0,0
1564503471140.63,-62.37,0,0,0,0,0
1564503471156.25,-32.12,0,0,0,0,0
1564503471171.88,1.88,0,0,0,0,0
1564503471187.5,33.93,0,0,0,0,0
1564503471203.13,59.76,0,0,0,0,0
1564503471218.75,77.64,0,0,0,0,0
1564503471234.38,88.09,0,0,0,0,0
1564503471250,92.79,0,0,0,0,0
1564503471265.63,93.13,0,0,0,0,0
1564503471281.25,89.49,0,0,0,0,0
1564503471296.88,81.34,0,0,0,0,0
1564503471312.5,67.92,0,0,0,0,0
1564503471328.13,49.21,0,0,0,0,0
1564503471343.75,26.38,0,0,0,0,0
1564503471359.38,1.69,0,0,0,0,0
1564503471375,-22.05,0,0,0,0,0
1564503471390.63,-42.22,0,0,0,0,0
1564503471406.25,-57.06,0,0,0,0,0
1564503471421.88,-66.01,0,0,0,0,0
1564503471437.5,-69.63,0,0,0,0,0
1564503471453.13,-69.32,0,0,0,0,0
1564503471468.75,-66.82,0,0,0,0,0
1564503471484.38,-63.9,0,0,0,0,0
1564503471500,-61.97,0,0,0,0,0
1564503471515.63,-61.77,0,0,0,0,0
1564503471531.25,-62.99,0,0,0,0,0
1564503471546.88,-64.01,0,0,0,0,0
1564503471562.5,-62.05,0,0,0,0,0
1564503471578.13,-53.79,0,0,0,0,0
1564503471593.75,-36.57,0,0,0,0,0
1564503471609.38,-9.52,0,0,0,0,0
1564503471625,25.82,0,0,0,0,0
1564503471640.63,65.77,0,0,0,0,0
1564503471656.25,105.52,0,0,0,0,0
1564503471671.88,140.53,0,0,0,0,0
1564503471687.5,167.52,0,0,0,0,0
1564503471703.13,184.89,0,0,0,0,0
1564503471718.75,192.43,0,0,0,0,0
1564503471734.38,190.82,0,0,0,0,0
1564503471750,181.09,0,0,0,0,0
1564503471765.63,164.44,0,0,0,0,0
1564503471781.25,142.24,0,0,0,0,0
1564503471796.88,116.09,0,0,0,0,0
1564503471812.5,87.97,0,0,0,0,0
1564503471828.13,60.11,0,0,0,0,0
1564503471843.75,34.84,0,0,0,0,0
1564503471859.38,14.27,0,0,0,0,0
1564503471875,-0.15,0,0,0,0,0
1564503471890.63,-7.88,0,0,0,0,0
1564503471906.25,-9.58,0,0,0,0,0
1564503471921.88,-6.85,0,0,0,0,0
1564503471937.5,-1.98,0,0,0,0,0
1564503471953.13,2.58,0,0,0,0,0
1564503471968.75,4.56,0,0,0,0,0
1564503471984.38,2.11,0,0,0,0,0
1564503472000,-5.81,0,0,0,0,0
1564503472015.63,-18.98,0,0,0,0,0
1564503472031.25,-35.42,0,0,0,0,0
1564503472046.88,-51.3,0,0,0,0,0
1564503472062.5,-61.56,0,0,0,0,0
1564503472078.13,-61.31,0,0,0,0,0
1564503472093.75,-47.66,0,0,0,0,0
1564503472109.38,-20.97,0,0,0,0,0
1564503472125,14.99,0,0,0,0,0
1564503472140.63,54.13,0,0,0,0,0
1564503472156.25,90.09,0,0,0,0,0
1564503472171.88,118.02,0,0,0,0,0
1564503472187.5,135.64,0,0,0,0,0
1564503472203.13,143.01,0,0,0,0,0
1564503472218.75,141.67,0,0,0,0,0
1564503472234.38,133.5,0,0,0,0,0
1564503472250,120.05,0,0,0,0,0
1564503472265.63,102.44,0,0,0,0,0
1564503472281.25,81.61,0,0,0,0,0
1564503472296.88,58.66,0,0,0,0,0
1564503472312.5,34.91,0,0,0,0,0
1564503472328.13,11.95,0,0,0,0,0
1564503472343.75,-8.62,0,0,0,0,0
1564503472359.38,-25.48,0,0,0,0,0
1564503472375,-37.87,0,0,0,0,0
1564503472390.63,-45.77,0,0,0,0,0
1564503472406.25,-50,0,0,0,0,0
1564503472421.88,-52.11,0,0,0,0,0
1564503472437.5,-54.09,0,0,0,0,0
1564503472453.13,-58.05,0,0,0,0,0
1564503472468.75,-65.93,0,0,0,0,0
1564503472484.38,-79.23,0,0,0,0,0
1564503472500,-98.66,0,0,0,0,0
1564503472515.63,-123.6,0,0,0,0,0
1564503472531.25,-151.55,0,0,0,0,0
1564503472546.88,-178.09,0,0,0,0,0
1564503472562.5,-197.65,0,0,0,0,0
1564503472578.13,-205.09,0,0,0,0,0
1564503472593.75,-197.58,0,0,0,0,0
1564503472609.38,-175.74,0,0,0,0,0
1564503472625,-143.62,0,0,0,0,0
1564503472640.63,-107.2,0,0,0,0,0
1564503472656.25,-72.41,0,0,0,0,0
1564503472671.88,-43.35,0,0,0,0,0
1564503472687.5,-21.73,0,0,0,0,0
1564503472703.13,-7.37,0,0,0,0,0
1564503472718.75,0.65,0,0,0,0,0
1564503472734.38,3.16,0,0,0,0,0
1564503472750,0.62,0,0,0,0,0
1564503472765.63,-6.53,0,0,0,0,0
1564503472781.25,-17.37,0,0,0,0,0
1564503472796.88,-30.32,0,0,0,0,0
1564503472812.5,-43.36,0,0,0,0,0
1564503472828.13,-54.47,0,0,0,0,0
1564503472843.75,-62.16,0,0,0,0,0
1564503472859.38,-65.64,0,0,0,0,0
1564503472875,-64.92,0,0,0,0,0
1564503472890.63,-60.58,0,0,0,0,0
1564503472906.25,-53.63,0,0,0,0,0
1564503472921.88,-45.32,0,0,0,0,0
1564503472937.5,-37.18,0,0,0,0,0
1564503472953.13,-30.95,0,0,0,0,0
1564503472968.75,-28.42,0,0,0,0,0
1564503472984.38,-30.97,0,0,0,0,0
1564503473000,-38.74,0,0,0,0,0
1564503473015.63,-49.98,0,0,0,0,0
1564503473031.25,-60.84,0,0,0,0,0
1564503473046.88,-66.19,0,0,0,0,0
1564503473062.5,-61.22,0,0,0,0,0
1564503473078.13,-43.31,0,0,0,0,0
1564503473093.75,-13.24,0,0,0,0,0
1564503473109.38,24.89,0,0,0,0,0
1564503473125,65,0,0,0,0,0
1564503473140.63,101.03,0,0,0,0,0
1564503473156.25,128.67,0,0,0,0,0
1564503473171.88,146.1,0,0,0,0,0
1564503473187.5,153.66,0,0,0,0,0
1564503473203.13,152.8,0,0,0,0,0
1564503473218.75,145.05,0,0,0,0,0
1564503473234.38,131.55,0,0,0,0,0
1564503473250,113.14,0,0,0,0,0
1564503473265.63,90.85,0,0,0,0,0
1564503473281.25,66.25,0,0,0,0,0
1564503473296.88,41.55,0,0,0,0,0
1564503473312.5,19.17,0,0,0,0,0
1564503473328.13,1.3,0,0,0,0,0
1564503473343.75,-10.7,0,0,0,0,0
1564503473359.38,-16.61,0,0,0,0,0
1564503473375,-17.28,0,0,0,0,0
1564503473390.63,-14.42,0,0,0,0,0
1564503473406.25,-10.13,0,0,0,0,0
1564503473421.88,-6.55,0,0,0,0,0
1564503473437.5,-5.66,0,0,0,0,0
1564503473453.13,-9.07,0,0,0,0,0
1564503473468.75,-17.75,0,0,0,0,0
1564503473484.38,-31.43,0,0,0,0,0
1564503473500,-48.13,0,0,0,0,0
1564503473515.63,-63.91,0,0,0,0,0
1564503473531.25,-73.64,0,0,0,0,0
1564503473546.88,-72.43,0,0,0,0,0
1564503473562.5,-57.42,0,0,0,0,0
1564503473578.13,-29.06,0,0,0,0,0
1564503473593.75,8.74,0,0,0,0,0
1564503473609.38,49.81,0,0,0,0,0
1564503473625,87.7,0,0,0,0,0
1564503473640.63,117.55,0,0,0,0,0
1564503473656.25,137.01,0,0,0,0,0
1564503473671.88,146.12,0,0,0,0,0
1564503473687.5,146.27,0,0,0,0,0
1564503473703.13,139.07,0,0,0,0,0
1564503473718.75,125.65,0,0,0,0,0
1564503473734.38,106.64,0,0,0,0,0
1564503473750,82.67,0,0,0,0,0
1564503473765.63,54.9,0,0,0,0,0
1564503473781.25,25.33,0,0,0,0,0
1564503473796.88,-3.31,0,0,0,0,0
1564503473812.5,-28.19,0,0,0,0,0
1564503473828.13,-47.07,0,0,0,0,0
1564503473843.75,-58.93,0,0,0,0,0
1564503473859.38,-64.13,0,0,0,0,0
1564503473875,-64.18,0,0,0,0,0
1564503473890.63,-61.18,0,0,0,0,0
1564503473906.25,-57.24,0,0,0,0,0
1564503473921.88,-54.2,0,0,0,0,0
1564503473937.5,-53.55,0,0,0,0,0
1564503473953.13,-56.43,0,0,0,0,0
1564503473968.75,-63.26,0,0,0,0,0
1564503473984.38,-73.18,0,0,0,0,0
1564503474000,-83.57,0,0,0,0,0
1564503474015.63,-90.17,0,0,0,0,0
1564503474031.25,-88.09,0,0,0,0,0
1564503474046.88,-73.5,0,0,0,0,0
1564503474062.5,-45.31,0,0,0,0,0
1564503474078.13,-5.99,0,0,0,0,0
1564503474093.75,39,0,0,0,0,0
1564503474109.38,82.85,0,0,0,0,0
1564503474125,119.59,0,0,0,0,0
1564503474140.63,145.64,0,0,0,0,0
1564503474156.25,160.38,0,0,0,0,0
1564503474171.88,165.51,0,0,0,0,0
1564503474187.5,163.87,0,0,0,0,0
1564503474203.13,158.35,0,0,0,0,0
1564503474218.75,151.34,0,0,0,0,0
1564503474234.38,144.64,0,0,0,0,0
1564503474250,139.56,0,0,0,0,0
1564503474265.63,136.93,0,0,0,0,0
1564503474281.25,136.73,0,0,0,0,0
1564503474296.88,137.9,0,0,0,0,0
1564503474312.5,138.38,0,0,0,0,0
1564503474328.13,135.72,0,0,0,0,0
1564503474343.75,128.11,0,0,0,0,0
1564503474359.38,115.28,0,0,0,0,0
1564503474375,98.69,0,0,0,0,0
1564503474390.63,80.94,0,0,0,0,0
1564503474406.25,64.48,0,0,0,0,0
1564503474421.88,50.38,0,0,0,0,0
1564503474437.5,37.83,0,0,0,0,0
1564503474453.13,24.66,0,0,0,0,0
1564503474468.75,8.89,0,0,0,0,0
1564503474484.38,-9.71,0,0,0,0,0
1564503474500,-28.72,0,0,0,0,0
1564503474515.63,-43.6,0,0,0,0,0
1564503474531.25,-49.43,0,0,0,0,0
1564503474546.88,-43.07,0,0,0,0,0
1564503474562.5,-24.59,0,0,0,0,0
1564503474578.13,2.7,0,0,0,0,0
1564503474593.75,33.76,0,0,0,0,0
1564503474609.38,63.77,0,0,0,0,0
1564503474625,89.69,0,0,0,0,0
1564503474640.63,110.54,0,0,0,0,0
1564503474656.25,126.61,0,0,0,0,0
1564503474671.88,138.18,0,0,0,0,0
1564503474687.5,144.77,0,0,0,0,0
1564503474703.13,145.26,0,0,0,0,0
1564503474718.75,138.51,0,0,0,0,0
1564503474734.38,124.11,0,0,0,0,0
1564503474750,102.64,0,0,0,0,0
1564503474765.63,75.35,0,0,0,0,0
1564503474781.25,43.89,0,0,0,0,0
1564503474796.88,10.1,0,0,0,0,0
1564503474812.5,-23.86,0,0,0,0,0
1564503474828.13,-55.61,0,0,0,0,0
1564503474843.75,-82.65,0,0,0,0,0
1564503474859.38,-103.04,0,0,0,0,0
1564503474875,-115.99,0,0,0,0,0
1564503474890.63,-122.13,0,0,0,0,0
1564503474906.25,-123.26,0,0,0,0,0
1564503474921.88,-121.82,0,0,0,0,0
1564503474937.5,-120.13,0,0,0,0,0
1564503474953.13,-119.74,0,0,0,0,0
1564503474968.75,-121.09,0,0,0,0,0
1564503474984.38,-123.47,0,0,0,0,0
1564503475000,-125.24,0,0,0,0,0
1564503475015.63,-124.27,0,0,0,0,0
1564503475031.25,-118.43,0,0,0,0,0
1564503475046.88,-106.17,0,0,0,0,0
1564503475062.5,-87.01,0,0,0,0,0
1564503475078.13,-61.85,0,0,0,0,0
1564503475093.75,-32.91,0,0,0,0,0
1564503475109.38,-3.45,0,0,0,0,0
1564503475125,23.12,0,0,0,0,0
1564503475140.63,44.22,0,0,0,0,0
1564503475156.25,58.91,0,0,0,0,0
1564503475171.88,67.91,0,0,0,0,0
1564503475187.5,72.86,0,0,0,0,0
1564503475203.13,75.14,0,0,0,0,0
1564503475218.75,75.02,0,0,0,0,0
1564503475234.38,71.7,0,0,0,0,0
1564503475250,64.31,0,0,0,0,0
1564503475265.63,52.87,0,0,0,0,0
1564503475281.25,38.74,0,0,0,0,0
1564503475296.88,23.97,0,0,0,0,0
1564503475312.5,10.33,0,0,0,0,0
1564503475328.13,-1.62,0,0,0,0,0
1564503475343.75,-12.27,0,0,0,0,0
1564503475359.38,-22.27,0,0,0,0,0
1564503475375,-31.64,0,0,0,0,0
1564503475390.63,-39.55,0,0,0,0,0
1564503475406.25,-44.79,0,0,0,0,0
1564503475421.88,-46.71,0,0,0,0,0
1564503475437.5,-45.6,0,0,0,0,0
1564503475453.13,-42.46,0,0,0,0,0
1564503475468.75,-38.29,0,0,0,0,0
1564503475484.38,-33.7,0,0,0,0,0
1564503475500,-28.86,0,0,0,0,0
1564503475515.63,-24.04,0,0,0,0,0
1564503475531.25,-19.87,0,0,0,0,0
1564503475546.88,-17.06,0,0,0,0,0
1564503475562.5,-15.84,0,0,0,0,0
1564503475578.13,-15.27,0,0,0,0,0
1564503475593.75,-13.29,0,0,0,0,0
1564503475609.38,-7.3,0,0,0,0,0
1564503475625,4.88,0,0,0,0,0
1564503475640.63,24.15,0,0,0,0,0
1564503475656.25,49.76,0,0,0,0,0
1564503475671.88,79.39,0,0,0,0,0
1564503475687.5,109.93,0,0,0,0,0
1564503475703.13,138.31,0,0,0,0,0
1564503475718.75,162.44,0,0,0,0,0
1564503475734.38,181.61,0,0,0,0,0
1564503475750,196.47,0,0,0,0,0
1564503475765.63,208.49,0,0,0,0,0
1564503475781.25,219.19,0,0,0,0,0
1564503475796.88,229.23,0,0,0,0,0
1564503475812.5,237.99,0,0,0,0,0
1564503475828.13,243.69,0,0,0,0,0
1564503475843.75,244.01,0,0,0,0,0
1564503475859.38,236.93,0,0,0,0,0
1564503475875,221.63,0,0,0,0,0
1564503475890.63,198.79,0,0,0,0,0
1564503475906.25,170.55,0,0,0,0,0
1564503475921.88,139.89,0,0,0,0,0
1564503475937.5,109.99,0,0,0,0,0
1564503475953.13,83.71,0,0,0,0,0
1564503475968.75,63.13,0,0,0,0,0
1564503475984.38,49.31,0,0,0,0,0
1564503476000,42.17,0,0,0,0,0
1564503476015.63,40.52,0,0,0,0,0
1564503476031.25,42.23,0,0,0,0,0
1564503476046.88,44.44,0,0,0,0,0
1564503476062.5,44.06,0,0,0,0,0
1564503476078.13,38.31,0,0,0,0,0
1564503476093.75,25.23,0,0,0,0,0
1564503476109.38,4.16,0,0,0,0,0
1564503476125,-24.23,0,0,0,0,0
1564503476140.63,-57.98,0,0,0,0,0
1564503476156.25,-94.28,0,0,0,0,0
1564503476171.88,-129.96,0,0,0,0,0
1564503476187.5,-162.21,0,0,0,0,0
1564503476203.13,-188.97,0,0,0,0,0
1564503476218.75,-209.36,0,0,0,0,0
1564503476234.38,-223.61,0,0,0,0,0
1564503476250,-232.85,0,0,0,0,0
1564503476265.63,-238.7,0,0,0,0,0
1564503476281.25,-242.58,0,0,0,0,0
1564503476296.88,-245.18,0,0,0,0,0
1564503476312.5,-246.19,0,0,0,0,0
1564503476328.13,-244.48,0,0,0,0,0
1564503476343.75,-238.82,0,0,0,0,0
1564503476359.38,-228.95,0,0,0,0,0
1564503476375,-216.27,0,0,0,0,0
1564503476390.63,-204.03,0,0,0,0,0
1564503476406.25,-196.58,0,0,0,0,0
1564503476421.88,-197.99,0,0,0,0,0
1564503476437.5,-210.52,0,0,0,0,0
1564503476453.13,-233.22,0,0,0,0,0
1564503476468.75,-261.57,0,0,0,0,0
1564503476484.38,-288.24,0,0,0,0,0
1564503476500,-305.11,0,0,0,0,0
1564503476515.63,-305.87,0,0,0,0,0
1564503476531.25,-288.13,0,0,0,0,0
1564503476546.88,-254.19,0,0,0,0,0
1564503476562.5,-210.03,0,0,0,0,0
1564503476578.13,-162.99,0,0,0,0,0
1564503476593.75,-119.06,0,0,0,0,0
1564503476609.38,-81.23,0,0,0,0,0
1564503476625,-49.6,0,0,0,0,0
1564503476640.63,-22.79,0,0,0,0,0
1564503476656.25,0.13,0,0,0,0,0
1564503476671.88,18.56,0,0,0,0,0
1564503476687.5,30.67,0,0,0,0,0
1564503476703.13,34.83,0,0,0,0,0
1564503476718.75,30.82,0,0,0,0,0
1564503476734.38,20.36,0,0,0,0,0
1564503476750,6.42,0,0,0,0,0
1564503476765.63,-8.05,0,0,0,0,0
1564503476781.25,-21.24,0,0,0,0,0
1564503476796.88,-32.79,0,0,0,0,0
1564503476812.5,-43.32,0,0,0,0,0
1564503476828.13,-53.58,0,0,0,0,0
1564503476843.75,-63.62,0,0,0,0,0
1564503476859.38,-72.63,0,0,0,0,0
1564503476875,-79.08,0,0,0,0,0
1564503476890.63,-81.28,0,0,0,0,0
1564503476906.25,-78.05,0,0,0,0,0
1564503476921.88,-69.37,0,0,0,0,0
1564503476937.5,-56.65,0,0,0,0,0
1564503476953.13,-42.63,0,0,0,0,0
1564503476968.75,-30.7,0,0,0,0,0
1564503476984.38,-23.61,0,0,0,0,0
1564503477000,-22.17,0,0,0,0,0
1564503477015.63,-24.69,0,0,0,0,0
1564503477031.25,-27.7,0,0,0,0,0
1564503477046.88,-27.75,0,0,0,0,0
1564503477062.5,-23.54,0,0,0,0,0
1564503477078.13,-16.85,0,0,0,0,0
1564503477093.75,-11.9,0,0,0,0,0
1564503477109.38,-13.21,0,0,0,0,0
1564503477125,-23.45,0,0,0,0,0
1564503477140.63,-42.33,0,0,0,0,0
1564503477156.25,-67.16,0,0,0,0,0
1564503477171.88,-94.46,0,0,0,0,0
1564503477187.5,-121.28,0,0,0,0,0
1564503477203.13,-145.7,0,0,0,0,0
1564503477218.75,-166.5,0,0,0,0,0
1564503477234.38,-182.41,0,0,0,0,0
1564503477250,-192.13,0,0,0,0,0
1564503477265.63,-194.86,0,0,0,0,0
1564503477281.25,-191.12,0,0,0,0,0
1564503477296.88,-183.03,0,0,0,0,0
1564503477312.5,-173.91,0,0,0,0,0
1564503477328.13,-167,0,0,0,0,0
1564503477343.75,-164.24,0,0,0,0,0
1564503477359.38,-165.48,0,0,0,0,0
1564503477375,-168.4,0,0,0,0,0
1564503477390.63,-169.15,0,0,0,0,0
1564503477406.25,-163.56,0,0,0,0,0
1564503477421.88,-148.41,0,0,0,0,0
1564503477437.5,-122.47,0,0,0,0,0
1564503477453.13,-86.88,0,0,0,0,0
1564503477468.75,-44.73,0,0,0,0,0
1564503477484.38,-0.11,0,0,0,0,0
1564503477500,43.12,0,0,0,0,0
1564503477515.63,82.17,0,0,0,0,0
1564503477531.25,115.41,0,0,0,0,0
1564503477546.88,142.04,0,0,0,0,0
1564503477562.5,161.48,0,0,0,0,0
1564503477578.13,172.98,0,0,0,0,0
1564503477593.75,175.73,0,0,0,0,0
1564503477609.38,169.19,0,0,0,0,0
1564503477625,153.61,0,0,0,0,0
1564503477640.63,130.32,0,0,0,0,0
1564503477656.25,101.74,0,0,0,0,0
1564503477671.88,71.02,0,0,0,0,0
1564503477687.5,41.47,0,0,0,0,0
1564503477703.13,15.85,0,0,0,0,0
1564503477718.75,-4.22,0,0,0,0,0
1564503477734.38,-18.39,0,0,0,0,0
1564503477750,-27.56,0,0,0,0,0
1564503477765.63,-33.38,0,0,0,0,0
1564503477781.25,-37.9,0,0,0,0,0
1564503477796.88,-42.91,0,0,0,0,0
1564503477812.5,-49.43,0,0,0,0,0
1564503477828.13,-57.15,0,0,0,0,0
1564503477843.75,-64.19,0,0,0,0,0
1564503477859.38,-67.38,0,0,0,0,0
1564503477875,-63.2,0,0,0,0,0
1564503477890.63,-48.85,0,0,0,0,0
1564503477906.25,-23.26,0,0,0,0,0
1564503477921.88,12.84,0,0,0,0,0
1564503477937.5,57.49,0,0,0,0,0
1564503477953.13,108.44,0,0,0,0,0
1564503477968.75,163.74,0,0,0,0,0
1564503477984.38,221.47,0,0,0,0,0
1564503478000,278.78,0,0,0,0,0
1564503478015.63,331.03,0,0,0,0,0
1564503478031.25,371.91,0,0,0,0,0
1564503478046.88,394.67,0,0,0,0,0
1564503478062.5,394.14,0,0,0,0,0
1564503478078.13,368.42,0,0,0,0,0
1564503478093.75,319.67,0,0,0,0,0
1564503478109.38,253.74,0,0,0,0,0
1564503478125,178.81,0,0,0,0,0
1564503478140.63,103.82,0,0,0,0,0
1564503478156.25,36.93,0,0,0,0,0
1564503478171.88,-15.71,0,0,0,0,0
1564503478187.5,-50.82,0,0,0,0,0
1564503478203.13,-68.28,0,0,0,0,0
1564503478218.75,-71.04,0,0,0,0,0
1564503478234.38,-64.36,0,0,0,0,0
1564503478250,-54.66,0,0,0,0,0
1564503478265.63,-47.95,0,0,0,0,0
1564503478281.25,-48.35,0,0,0,0,0
1564503478296.88,-56.96,0,0,0,0,0
1564503478312.5,-71.56,0,0,0,0,0
1564503478328.13,-87.23,0,0,0,0,0
1564503478343.75,-97.94,0,0,0,0,0
1564503478359.38,-98.56,0,0,0,0,0
1564503478375,-86.73,0,0,0,0,0
1564503478390.63,-63.63,0,0,0,0,0
1564503478406.25,-33.6,0,0,0,0,0
1564503478421.88,-2.47,0,0,0,0,0
1564503478437.5,24.37,0,0,0,0,0
1564503478453.13,43.51,0,0,0,0,0
1564503478468.75,53.96,0,0,0,0,0
1564503478484.38,56.55,0,0,0,0,0
1564503478500,52.88,0,0,0,0,0
1564503478515.63,44.34,0,0,0,0,0
1564503478531.25,31.58,0,0,0,0,0
1564503478546.88,14.73,0,0,0,0,0
1564503478562.5,-6.03,0,0,0,0,0
1564503478578.13,-29.91,0,0,0,0,0
1564503478593.75,-55.13,0,0,0,0,0
1564503478609.38,-79.2,0,0,0,0,0
1564503478625,-99.66,0,0,0,0,0
1564503478640.63,-115.05,0,0,0,0,0
1564503478656.25,-125.56,0,0,0,0,0
1564503478671.88,-132.92,0,0,0,0,0
1564503478687.5,-139.48,0,0,0,0,0
1564503478703.13,-146.93,0,0,0,0,0
1564503478718.75,-155.25,0,0,0,0,0
1564503478734.38,-162.5,0,0,0,0,0
1564503478750,-165.71,0,0,0,0,0
1564503478765.63,-162.26,0,0,0,0,0
1564503478781.25,-151.21,0,0,0,0,0
1564503478796.88,-133.54,0,0,0,0,0
1564503478812.5,-111.5,0,0,0,0,0
1564503478828.13,-87.2,0,0,0,0,0
1564503478843.75,-61.5,0,0,0,0,0
1564503478859.38,-33.81,0,0,0,0,0
1564503478875,-2.84,0,0,0,0,0
1564503478890.63,32.19,0,0,0,0,0
1564503478906.25,70.93,0,0,0,0,0
1564503478921.88,112.03,0,0,0,0,0
1564503478937.5,153.79,0,0,0,0,0
1564503478953.13,194.57,0,0,0,0,0
1564503478968.75,232.69,0,0,0,0,0
1564503478984.38,265.39,0,0,0,0,0
1564503479000,288.18,0,0,0,0,0
1564503479015.63,295.67,0,0,0,0,0
1564503479031.25,283.75,0,0,0,0,0
1564503479046.88,252.29,0,0,0,0,0
1564503479062.5,206.21,0,0,0,0,0
1564503479078.13,154.02,0,0,0,0,0
1564503479093.75,104.19,0,0,0,0,0
1564503479109.38,61.94,0,0,0,0,0
1564503479125,28.14,0,0,0,0,0
1564503479140.63,1.46,0,0,0,0,0
1564503479156.25,-18.52,0,0,0,0,0
1564503479171.88,-29.65,0,0,0,0,0
1564503479187.5,-28.78,0,0,0,0,0
1564503479203.13,-15.64,0,0,0,0,0
1564503479218.75,4.01,0,0,0,0,0
1564503479234.38,18.32,0,0,0,0,0
1564503479250,14.3,0,0,0,0,0
1564503479265.63,-15.73,0,0,0,0,0
1564503479281.25,-69.37,0,0,0,0,0
1564503479296.88,-134.01,0,0,0,0,0
1564503479312.5,-192.02,0,0,0,0,0
1564503479328.13,-228.36,0,0,0,0,0
1564503479343.75,-236.46,0,0,0,0,0
1564503479359.38,-219.7,0,0,0,0,0
1564503479375,-188.19,0,0,0,0,0
1564503479390.63,-152.48,0,0,0,0,0
1564503479406.25,-118.34,0,0,0,0,0
1564503479421.88,-85.13,0,0,0,0,0
1564503479437.5,-48.61,0,0,0,0,0
1564503479453.13,-5.84,0,0,0,0,0
1564503479468.75,41.5,0,0,0,0,0
1564503479484.38,86.76,0,0,0,0,0
1564503479500,121.54,0,0,0,0,0
1564503479515.63,140.08,0,0,0,0,0
1564503479531.25,142.42,0,0,0,0,0
1564503479546.88,134.34,0,0,0,0,0
1564503479562.5,124.26,0,0,0,0,0
1564503479578.13,119.05,0,0,0,0,0
1564503479593.75,120.85,0,0,0,0,0
1564503479609.38,126.72,0,0,0,0,0
1564503479625,130.71,0,0,0,0,0
1564503479640.63,127.28,0,0,0,0,0
1564503479656.25,113.53,0,0,0,0,0
1564503479671.88,89.86,0,0,0,0,0
1564503479687.5,58.72,0,0,0,0,0
1564503479703.13,23.22,0,0,0,0,0
1564503479718.75,-13.73,0,0,0,0,0
1564503479734.38,-50.02,0,0,0,0,0
1564503479750,-83.74,0,0,0,0,0
1564503479765.63,-113.37,0,0,0,0,0
1564503479781.25,-137.6,0,0,0,0,0
1564503479796.88,-155.38,0,0,0,0,0
1564503479812.5,-165.95,0,0,0,0,0
1564503479828.13,-168.67,0,0,0,0,0
1564503479843.75,-162.46,0,0,0,0,0
1564503479859.38,-145.55,0,0,0,0,0
1564503479875,-116.6,0,0,0,0,0
1564503479890.63,-76.43,0,0,0,0,0
1564503479906.25,-29.8,0,0,0,0,0
1564503479921.88,14.97,0,0,0,0,0
1564503479937.5,48.51,0,0,0,0,0
1564503479953.13,64.08,0,0,0,0,0
1564503479968.75,60.57,0,0,0,0,0
1564503479984.38,42.72,0,0,0,0,0
1564503480000,18.6,0,0,0,0,0
1564503480015.63,-4.43,0,0,0,0,0
1564503480031.25,-22.59,0,0,0,0,0
1564503480046.88,-36.28,0,0,0,0,0
1564503480062.5,-48.2,0,0,0,0,0
1564503480078.13,-60.7,0,0,0,0,0
1564503480093.75,-73.97,0,0,0,0,0
1564503480109.38,-86.24,0,0,0,0,0
1564503480125,-95.33,0,0,0,0,0
1564503480140.63,-100.37,0,0,0,0,0
1564503480156.25,-102.49,0,0,0,0,0
1564503480171.88,-103.92,0,0,0,0,0
1564503480187.5,-106.18,0,0,0,0,0
1564503480203.13,-108.82,0,0,0,0,0
1564503480218.75,-109.29,0,0,0,0,0
1564503480234.38,-103.97,0,0,0,0,0
1564503480250,-89.54,0,0,0,0,0
1564503480265.63,-64.34,0,0,0,0,0
1564503480281.25,-28.53,0,0,0,0,0
1564503480296.88,16.47,0,0,0,0,0
1564503480312.5,68.66,0,0,0,0,0
1564503480328.13,125.42,0,0,0,0,0
1564503480343.75,183.01,0,0,0,0,0
1564503480359.38,236,0,0,0,0,0
1564503480375,277.87,0,0,0,0,0
1564503480390.63,302.96,0,0,0,0,0
1564503480406.25,309.18,0,0,0,0,0
1564503480421.88,299.74,0,0,0,0,0
1564503480437.5,282.63,0,0,0,0,0
1564503480453.13,267.51,0,0,0,0,0
1564503480468.75,261.41,0,0,0,0,0
1564503480484.38,265.78,0,0,0,0,0
1564503480500,276.39,0,0,0,0,0
1564503480515.63,286.37,0,0,0,0,0
1564503480531.25,290.38,0,0,0,0,0
1564503480546.88,287.63,0,0,0,0,0
1564503480562.5,281.91,0,0,0,0,0
1564503480578.13,278.93,0,0,0,0,0
1564503480593.75,282.75,0,0,0,0,0
1564503480609.38,293.41,0,0,0,0,0
1564503480625,306.92,0,0,0,0,0
1564503480640.63,317.36,0,0,0,0,0
1564503480656.25,319.57,0,0,0,0,0
1564503480671.88,311.19,0,0,0,0,0
1564503480687.5,293.22,0,0,0,0,0
1564503480703.13,269.13,0,0,0,0,0
1564503480718.75,243.27,0,0,0,0,0
1564503480734.38,219.32,0,0,0,0,0
1564503480750,199.58,0,0,0,0,0
1564503480765.63,184.81,0,0,0,0,0
1564503480781.25,174.63,0,0,0,0,0
1564503480796.88,168.17,0,0,0,0,0
1564503480812.5,164.61,0,0,0,0,0
1564503480828.13,163.53,0,0,0,0,0
1564503480843.75,164.93,0,0,0,0,0
1564503480859.38,168.89,0,0,0,0,0
1564503480875,174.94,0,0,0,0,0
1564503480890.63,181.55,0,0,0,0,0
1564503480906.25,185.93,0,0,0,0,0
1564503480921.88,184.69,0,0,0,0,0
1564503480937.5,174.93,0,0,0,0,0
1564503480953.13,155.63,0,0,0,0,0
1564503480968.75,128.4,0,0,0,0,0
1564503480984.38,97.18,0,0,0,0,0
1564503481000,66.92,0,0,0,0,0
1564503481015.63,41.91,0,0,0,0,0
1564503481031.25,24.44,0,0,0,0,0
1564503481046.88,14.36,0,0,0,0,0
1564503481062.5,9.62,0,0,0,0,0
1564503481078.13,7.28,0,0,0,0,0
1564503481093.75,4.35,0,0,0,0,0
1564503481109.38,-1.75,0,0,0,0,0
1564503481125,-12.96,0,0,0,0,0
1564503481140.63,-30.48,0,0,0,0,0
1564503481156.25,-54.34,0,0,0,0,0
1564503481171.88,-83.08,0,0,0,0,0
1564503481187.5,-113.71,0,0,0,0,0
1564503481203.13,-142.37,0,0,0,0,0
1564503481218.75,-165.33,0,0,0,0,0
1564503481234.38,-180.21,0,0,0,0,0
1564503481250,-186.68,0,0,0,0,0
1564503481265.63,-186.59,0,0,0,0,0
1564503481281.25,-183.1,0,0,0,0,0
1564503481296.88,-179.56,0,0,0,0,0
1564503481312.5,-178.34,0,0,0,0,0
1564503481328.13,-180.3,0,0,0,0,0
1564503481343.75,-184.91,0,0,0,0,0
1564503481359.38,-190.89,0,0,0,0,0
1564503481375,-197.02,0,0,0,0,0
1564503481390.63,-202.65,0,0,0,0,0
1564503481406.25,-207.75,0,0,0,0,0
1564503481421.88,-212.51,0,0,0,0,0
1564503481437.5,-217.13,0,0,0,0,0
1564503481453.13,-221.46,0,0,0,0,0
1564503481468.75,-225.18,0,0,0,0,0
1564503481484.38,-227.84,0,0,0,0,0
1564503481500,-229.03,0,0,0,0,0
1564503481515.63,-228.35,0,0,0,0,0
1564503481531.25,-225.29,0,0,0,0,0
1564503481546.88,-219.14,0,0,0,0,0
1564503481562.5,-209.03,0,0,0,0,0
1564503481578.13,-194.03,0,0,0,0,0
1564503481593.75,-173.57,0,0,0,0,0
1564503481609.38,-147.79,0,0,0,0,0
1564503481625,-117.87,0,0,0,0,0
1564503481640.63,-86.01,0,0,0,0,0
1564503481656.25,-55.09,0,0,0,0,0
1564503481671.88,-28.04,0,0,0,0,0
1564503481687.5,-7.16,0,0,0,0,0
1564503481703.13,6.28,0,0,0,0,0
1564503481718.75,12,0,0,0,0,0
1564503481734.38,10.51,0,0,0,0,0
1564503481750,2.84,0,0,0,0,0
1564503481765.63,-9.62,0,0,0,0,0
1564503481781.25,-25.1,0,0,0,0,0
1564503481796.88,-41.66,0,0,0,0,0
1564503481812.5,-57.69,0,0,0,0,0
1564503481828.13,-72.59,0,0,0,0,0
1564503481843.75,-87.26,0,0,0,0,0
1564503481859.38,-104,0,0,0,0,0
1564503481875,-125.61,0,0,0,0,0
1564503481890.63,-154.14,0,0,0,0,0
1564503481906.25,-189.95,0,0,0,0,0
1564503481921.88,-231.59,0,0,0,0,0
1564503481937.5,-276.57,0,0,0,0,0
1564503481953.13,-322.28,0,0,0,0,0
1564503481968.75,-366.42,0,0,0,0,0
1564503481984.38,-406.7,0,0,0,0,0
1564503482000,-440.19,0,0,0,0,0
1564503482015.63,-463.25,0,0,0,0,0
1564503482031.25,-472.29,0,0,0,0,0
1564503482046.88,-465.36,0,0,0,0,0
1564503482062.5,-443.52,0,0,0,0,0
1564503482078.13,-410.84,0,0,0,0,0
1564503482093.75,-373.05,0,0,0,0,0
1564503482109.38,-335.08,0,0,0,0,0
1564503482125,-299.17,0,0,0,0,0
1564503482140.63,-264.3,0,0,0,0,0
1564503482156.25,-227.63,0,0,0,0,0
1564503482171.88,-186.84,0,0,0,0,0
1564503482187.5,-142.18,0,0,0,0,0
1564503482203.13,-96.93,0,0,0,0,0
1564503482218.75,-56.14,0,0,0,0,0
1564503482234.38,-24.43,0,0,0,0,0
1564503482250,-3.95,0,0,0,0,0
1564503482265.63,6.33,0,0,0,0,0
1564503482281.25,9.94,0,0,0,0,0
1564503482296.88,11.21,0,0,0,0,0
1564503482312.5,13.51,0,0,0,0,0
1564503482328.13,18.19,0,0,0,0,0
1564503482343.75,24.59,0,0,0,0,0
1564503482359.38,30.88,0,0,0,0,0
1564503482375,35,0,0,0,0,0
1564503482390.63,35.63,0,0,0,0,0
1564503482406.25,32.51,0,0,0,0,0
1564503482421.88,26.63,0,0,0,0,0
1564503482437.5,20.05,0,0,0,0,0
1564503482453.13,15.49,0,0,0,0,0
1564503482468.75,15.83,0,0,0,0,0
1564503482484.38,23.3,0,0,0,0,0
1564503482500,38.78,0,0,0,0,0
1564503482515.63,61.38,0,0,0,0,0
1564503482531.25,88.67,0,0,0,0,0
1564503482546.88,117.3,0,0,0,0,0
1564503482562.5,143.97,0,0,0,0,0
1564503482578.13,166.07,0,0,0,0,0
1564503482593.75,182.02,0,0,0,0,0
1564503482609.38,191.05,0,0,0,0,0
1564503482625,192.94,0,0,0,0,0
1564503482640.63,187.78,0,0,0,0,0
1564503482656.25,175.97,0,0,0,0,0
1564503482671.88,158.42,0,0,0,0,0
1564503482687.5,136.77,0,0,0,0,0
1564503482703.13,113.27,0,0,0,0,0
1564503482718.75,90.48,0,0,0,0,0
1564503482734.38,70.81,0,0,0,0,0
1564503482750,55.9,0,0,0,0,0
1564503482765.63,46.31,0,0,0,0,0
1564503482781.25,41.41,0,0,0,0,0
1564503482796.88,39.65,0,0,0,0,0
1564503482812.5,38.94,0,0,0,0,0
1564503482828.13,37.11,0,0,0,0,0
1564503482843.75,32.33,0,0,0,0,0
1564503482859.38,23.54,0,0,0,0,0
1564503482875,10.9,0,0,0,0,0
1564503482890.63,-3.96,0,0,0,0,0
1564503482906.25,-17.97,0,0,0,0,0
1564503482921.88,-27.18,0,0,0,0,0
1564503482937.5,-27.94,0,0,0,0,0
1564503482953.13,-18.06,0,0,0,0,0
1564503482968.75,2.33,0,0,0,0,0
1564503482984.38,30.66,0,0,0,0,0
1564503483000,62.81,0,0,0,0,0
1564503483015.63,94.3,0,0,0,0,0
1564503483031.25,121.44,0,0,0,0,0
1564503483046.88,141.89,0,0,0,0,0
1564503483062.5,154.61,0,0,0,0,0
1564503483078.13,159.39,0,0,0,0,0
1564503483093.75,156.36,0,0,0,0,0
1564503483109.38,145.98,0,0,0,0,0
1564503483125,129.16,0,0,0,0,0
1564503483140.63,107.47,0,0,0,0,0
1564503483156.25,83.31,0,0,0,0,0
1564503483171.88,59.51,0,0,0,0,0
1564503483187.5,38.94,0,0,0,0,0
1564503483203.13,23.71,0,0,0,0,0
1564503483218.75,14.81,0,0,0,0,0
1564503483234.38,11.79,0,0,0,0,0
1564503483250,13.03,0,0,0,0,0
1564503483265.63,16.12,0,0,0,0,0
1564503483281.25,18.44,0,0,0,0,0
1564503483296.88,17.71,0,0,0,0,0
1564503483312.5,12.41,0,0,0,0,0
1564503483328.13,2.34,0,0,0,0,0
1564503483343.75,-11.11,0,0,0,0,0
1564503483359.38,-25,0,0,0,0,0
1564503483375,-35.39,0,0,0,0,0
1564503483390.63,-38.42,0,0,0,0,0
1564503483406.25,-31.68,0,0,0,0,0
1564503483421.88,-15.22,0,0,0,0,0
1564503483437.5,8.3,0,0,0,0,0
1564503483453.13,34.41,0,0,0,0,0
1564503483468.75,58.21,0,0,0,0,0
1564503483484.38,75.8,0,0,0,0,0
1564503483500,85.13,0,0,0,0,0
1564503483515.63,85.92,0,0,0,0,0
1564503483531.25,79.21,0,0,0,0,0
1564503483546.88,66.61,0,0,0,0,0
1564503483562.5,49.82,0,0,0,0,0
1564503483578.13,30.59,0,0,0,0,0
1564503483593.75,10.7,0,0,0,0,0
1564503483609.38,-7.86,0,0,0,0,0
1564503483625,-23.17,0,0,0,0,0
1564503483640.63,-33.63,0,0,0,0,0
1564503483656.25,-38.32,0,0,0,0,0
1564503483671.88,-37.22,0,0,0,0,0
1564503483687.5,-31.2,0,0,0,0,0
1564503483703.13,-21.8,0,0,0,0,0
1564503483718.75,-11,0,0,0,0,0
1564503483734.38,-0.87,0,0,0,0,0
1564503483750,6.49,0,0,0,0,0
1564503483765.63,9.19,0,0,0,0,0
1564503483781.25,6.01,0,0,0,0,0
1564503483796.88,-3.07,0,0,0,0,0
1564503483812.5,-16.3,0,0,0,0,0
1564503483828.13,-30.05,0,0,0,0,0
1564503483843.75,-39.59,0,0,0,0,0
1564503483859.38,-40.43,0,0,0,0,0
1564503483875,-29.98,0,0,0,0,0
1564503483890.63,-8.54,0,0,0,0,0
1564503483906.25,20.79,0,0,0,0,0
1564503483921.88,53.14,0,0,0,0,0
1564503483937.5,83.58,0,0,0,0,0
1564503483953.13,108.48,0,0,0,0,0
1564503483968.75,126.03,0,0,0,0,0
1564503483984.38,135.88,0,0,0,0,0
1564503484000,138.38,0,0,0,0,0
1564503484015.63,133.83,0,0,0,0,0
1564503484031.25,122.4,0,0,0,0,0
1564503484046.88,104.54,0,0,0,0,0
1564503484062.5,81.59,0,0,0,0,0
1564503484078.13,56.13,0,0,0,0,0
1564503484093.75,31.67,0,0,0,0,0
1564503484109.38,11.86,0,0,0,0,0
1564503484125,-0.71,0,0,0,0,0
1564503484140.63,-5.46,0,0,0,0,0
1564503484156.25,-4.07,0,0,0,0,0
1564503484171.88,0.01,0,0,0,0,0
1564503484187.5,2.72,0,0,0,0,0
1564503484203.13,0.8,0,0,0,0,0
1564503484218.75,-7.01,0,0,0,0,0
1564503484234.38,-19.35,0,0,0,0,0
1564503484250,-32.5,0,0,0,0,0
1564503484265.63,-41.29,0,0,0,0,0
1564503484281.25,-40.52,0,0,0,0,0
1564503484296.88,-26.17,0,0,0,0,0
1564503484312.5,3.81,0,0,0,0,0
1564503484328.13,49.07,0,0,0,0,0
1564503484343.75,106.75,0,0,0,0,0
1564503484359.38,171.57,0,0,0,0,0
1564503484375,236.1,0,0,0,0,0
1564503484390.63,291.76,0,0,0,0,0
1564503484406.25,330.31,0,0,0,0,0
1564503484421.88,345.87,0,0,0,0,0
1564503484437.5,336.48,0,0,0,0,0
1564503484453.13,304.42,0,0,0,0,0
1564503484468.75,254.94,0,0,0,0,0
1564503484484.38,194.04,0,0,0,0,0
1564503484500,126.52,0,0,0,0,0
1564503484515.63,55.6,0,0,0,0,0
1564503484531.25,-15.9,0,0,0,0,0
1564503484546.88,-83.82,0,0,0,0,0
1564503484562.5,-141.82,0,0,0,0,0
1564503484578.13,-182.55,0,0,0,0,0
1564503484593.75,-200.38,0,0,0,0,0
1564503484609.38,-194.15,0,0,0,0,0
1564503484625,-168.18,0,0,0,0,0
1564503484640.63,-131.01,0,0,0,0,0
1564503484656.25,-92.25,0,0,0,0,0
1564503484671.88,-59.46,0,0,0,0,0
1564503484687.5,-36.32,0,0,0,0,0
1564503484703.13,-22.77,0,0,0,0,0
1564503484718.75,-16.39,0,0,0,0,0
1564503484734.38,-14.14,0,0,0,0,0
1564503484750,-13.22,0,0,0,0,0
1564503484765.63,-11.15,0,0,0,0,0
1564503484781.25,-5.57,0,0,0,0,0
1564503484796.88,5.72,0,0,0,0,0
1564503484812.5,24.05,0,0,0,0,0
1564503484828.13,49.08,0,0,0,0,0
1564503484843.75,78.35,0,0,0,0,0
1564503484859.38,107.53,0,0,0,0,0
1564503484875,131.54,0,0,0,0,0
1564503484890.63,145.95,0,0,0,0,0
1564503484906.25,148.35,0,0,0,0,0
1564503484921.88,138.73,0,0,0,0,0
1564503484937.5,119.25,0,0,0,0,0
1564503484953.13,93.19,0,0,0,0,0
1564503484968.75,63.85,0,0,0,0,0
1564503484984.38,33.7,0,0,0,0,0
1564503485000,4.22,0,0,0,0,0
1564503485015.63,-23.88,0,0,0,0,0
1564503485031.25,-50.09,0,0,0,0,0
1564503485046.88,-73.8,0,0,0,0,0
1564503485062.5,-94.25,0,0,0,0,0
1564503485078.13,-110.92,0,0,0,0,0
1564503485093.75,-123.87,0,0,0,0,0
1564503485109.38,-133.73,0,0,0,0,0
1564503485125,-141.2,0,0,0,0,0
1564503485140.63,-146.4,0,0,0,0,0
1564503485156.25,-148.64,0,0,0,0,0
1564503485171.88,-146.78,0,0,0,0,0
1564503485187.5,-140,0,0,0,0,0
1564503485203.13,-128.72,0,0,0,0,0
1564503485218.75,-114.61,0,0,0,0,0
1564503485234.38,-99.89,0,0,0,0,0
1564503485250,-86.05,0,0,0,0,0
1564503485265.63,-72.99,0,0,0,0,0
1564503485281.25,-59.11,0,0,0,0,0
1564503485296.88,-42.45,0,0,0,0,0
1564503485312.5,-22.07,0,0,0,0,0
1564503485328.13,1.02,0,0,0,0,0
1564503485343.75,24.04,0,0,0,0,0
1564503485359.38,43.61,0,0,0,0,0
1564503485375,57.17,0,0,0,0,0
1564503485390.63,64,0,0,0,0,0
1564503485406.25,65.09,0,0,0,0,0
1564503485421.88,62.34,0,0,0,0,0
1564503485437.5,57.59,0,0,0,0,0
1564503485453.13,52.04,0,0,0,0,0
1564503485468.75,46.24,0,0,0,0,0
1564503485484.38,40.45,0,0,0,0,0
1564503485500,35.07,0,0,0,0,0
1564503485515.63,30.73,0,0,0,0,0
1564503485531.25,27.93,0,0,0,0,0
1564503485546.88,26.73,0,0,0,0,0
1564503485562.5,26.45,0,0,0,0,0
1564503485578.13,25.88,0,0,0,0,0
1564503485593.75,23.63,0,0,0,0,0
1564503485609.38,18.65,0,0,0,0,0
1564503485625,10.38,0,0,0,0,0
1564503485640.63,-1.22,0,0,0,0,0
1564503485656.25,-15.87,0,0,0,0,0
1564503485671.88,-32.74,0,0,0,0,0
1564503485687.5,-50.21,0,0,0,0,0
1564503485703.13,-65.6,0,0,0,0,0
1564503485718.75,-75.44,0,0,0,0,0
1564503485734.38,-76.43,0,0,0,0,0
1564503485750,-66.72,0,0,0,0,0
1564503485765.63,-46.92,0,0,0,0,0
1564503485781.25,-20.25,0,0,0,0,0
1564503485796.88,8.46,0,0,0,0,0
1564503485812.5,34.31,0,0,0,0,0
1564503485828.13,53.78,0,0,0,0,0
1564503485843.75,65.34,0,0,0,0,0
1564503485859.38,69.2,0,0,0,0,0
1564503485875,66.46,0,0,0,0,0
1564503485890.63,58.37,0,0,0,0,0
1564503485906.25,46.05,0,0,0,0,0
1564503485921.88,30.56,0,0,0,0,0
1564503485937.5,13.24,0,0,0,0,0
1564503485953.13,-4.24,0,0,0,0,0
1564503485968.75,-20.06,0,0,0,0,0
1564503485984.38,-32.59,0,0,0,0,0
1564503486000,-40.7,0,0,0,0,0
1564503486015.63,-43.99,0,0,0,0,0
1564503486031.25,-42.88,0,0,0,0,0
1564503486046.88,-38.44,0,0,0,0,0
1564503486062.5,-32.13,0,0,0,0,0
1564503486078.13,-25.54,0,0,0,0,0
1564503486093.75,-19.98,0,0,0,0,0
1564503486109.38,-16.46,0,0,0,0,0
1564503486125,-15.61,0,0,0,0,0
1564503486140.63,-17.78,0,0,0,0,0
1564503486156.25,-22.88,0,0,0,0,0
1564503486171.88,-30.12,0,0,0,0,0
1564503486187.5,-37.72,0,0,0,0,0
1564503486203.13,-43,0,0,0,0,0
1564503486218.75,-43,0,0,0,0,0
1564503486234.38,-35.56,0,0,0,0,0
1564503486250,-20.25,0,0,0,0,0
1564503486265.63,1.11,0,0,0,0,0
1564503486281.25,25.03,0,0,0,0,0
1564503486296.88,47.51,0,0,0,0,0
1564503486312.5,65.34,0,0,0,0,0
1564503486328.13,76.89,0,0,0,0,0
1564503486343.75,82.14,0,0,0,0,0
1564503486359.38,82.02,0,0,0,0,0
1564503486375,77.65,0,0,0,0,0
1564503486390.63,70.01,0,0,0,0,0
1564503486406.25,59.88,0,0,0,0,0
1564503486421.88,48.16,0,0,0,0,0
1564503486437.5,36,0,0,0,0,0
1564503486453.13,24.71,0,0,0,0,0
1564503486468.75,15.43,0,0,0,0,0
1564503486484.38,8.74,0,0,0,0,0
1564503486500,4.57,0,0,0,0,0
1564503486515.63,2.36,0,0,0,0,0
1564503486531.25,1.37,0,0,0,0,0
1564503486546.88,0.95,0,0,0,0,0
1564503486562.5,0.71,0,0,0,0,0
1564503486578.13,0.38,0,0,0,0,0
1564503486593.75,-0.34,0,0,0,0,0
1564503486609.38,-1.88,0,0,0,0,0
1564503486625,-4.8,0,0,0,0,0
1564503486640.63,-9.68,0,0,0,0,0
1564503486656.25,-16.76,0,0,0,0,0
1564503486671.88,-25.64,0,0,0,0,0
1564503486687.5,-35,0,0,0,0,0
1564503486703.13,-42.62,0,0,0,0,0
1564503486718.75,-45.84,0,0,0,0,0
1564503486734.38,-42.39,0,0,0,0,0
1564503486750,-31.23,0,0,0,0,0
1564503486765.63,-13.15,0,0,0,0,0
1564503486781.25,9.28,0,0,0,0,0
1564503486796.88,32.42,0,0,0,0,0
1564503486812.5,52.58,0,0,0,0,0
1564503486828.13,67.09,0,0,0,0,0
1564503486843.75,74.76,0,0,0,0,0
1564503486859.38,75.79,0,0,0,0,0
1564503486875,71.2,0,0,0,0,0
1564503486890.63,62.28,0,0,0,0,0
1564503486906.25,50.19,0,0,0,0,0
1564503486921.88,36.07,0,0,0,0,0
1564503486937.5,21.21,0,0,0,0,0
1564503486953.13,7.22,0,0,0,0,0
1564503486968.75,-4.12,0,0,0,0,0
1564503486984.38,-11.34,0,0,0,0,0
1564503487000,-13.67,0,0,0,0,0
1564503487015.63,-11.39,0,0,0,0,0
1564503487031.25,-5.69,0,0,0,0,0
1564503487046.88,1.77,0,0,0,0,0
1564503487062.5,9.5,0,0,0,0,0
1564503487078.13,16.54,0,0,0,0,0
1564503487093.75,22.52,0,0,0,0,0
1564503487109.38,27.46,0,0,0,0,0
1564503487125,31.35,0,0,0,0,0
1564503487140.63,33.88,0,0,0,0,0
1564503487156.25,34.53,0,0,0,0,0
1564503487171.88,32.85,0,0,0,0,0
1564503487187.5,28.86,0,0,0,0,0
1564503487203.13,23.19,0,0,0,0,0
1564503487218.75,17.07,0,0,0,0,0
1564503487234.38,11.86,0,0,0,0,0
1564503487250,8.71,0,0,0,0,0
1564503487265.63,8.16,0,0,0,0,0
1564503487281.25,10.08,0,0,0,0,0
1564503487296.88,13.82,0,0,0,0,0
1564503487312.5,18.45,0,0,0,0,0
1564503487328.13,23.09,0,0,0,0,0
1564503487343.75,26.98,0,0,0,0,0
1564503487359.38,29.57,0,0,0,0,0
1564503487375,30.52,0,0,0,0,0
1564503487390.63,29.7,0,0,0,0,0
1564503487406.25,27.14,0,0,0,0,0
1564503487421.88,23.04,0,0,0,0,0
1564503487437.5,17.75,0,0,0,0,0
1564503487453.13,11.63,0,0,0,0,0
1564503487468.75,5.06,0,0,0,0,0
1564503487484.38,-1.63,0,0,0,0,0
1564503487500,-8.12,0,0,0,0,0
1564503487515.63,-14.16,0,0,0,0,0
1564503487531.25,-19.49,0,0,0,0,0
1564503487546.88,-23.99,0,0,0,0,0
1564503487562.5,-27.66,0,0,0,0,0
1564503487578.13,-30.64,0,0,0,0,0
1564503487593.75,-33.13,0,0,0,0,0
1564503487609.38,-35.37,0,0,0,0,0
1564503487625,-37.55,0,0,0,0,0
1564503487640.63,-39.89,0,0,0,0,0
1564503487656.25,-42.64,0,0,0,0,0
1564503487671.88,-46.09,0,0,0,0,0
1564503487687.5,-50.46,0,0,0,0,0
1564503487703.13,-55.68,0,0,0,0,0
1564503487718.75,-61.25,0,0,0,0,0
1564503487734.38,-66.18,0,0,0,0,0
1564503487750,-69.26,0,0,0,0,0
1564503487765.63,-69.41,0,0,0,0,0
1564503487781.25,-66.05,0,0,0,0,0
1564503487796.88,-59.37,0,0,0,0,0
1564503487812.5,-50.2,0,0,0,0,0
1564503487828.13,-39.8,0,0,0,0,0
1564503487843.75,-29.47,0,0,0,0,0
1564503487859.38,-20.24,0,0,0,0,0
1564503487875,-12.75,0,0,0,0,0
1564503487890.63,-7.31,0,0,0,0,0
1564503487906.25,-3.97,0,0,0,0,0
1564503487921.88,-2.64,0,0,0,0,0
1564503487937.5,-3.08,0,0,0,0,0
1564503487953.13,-4.92,0,0,0,0,0
1564503487968.75,-7.69,0,0,0,0,0
1564503487984.38,-10.91,0,0,0,0,0
1564503488000,-14.12,0,0,0,0,0
1564503488015.63,-17.04,0,0,0,0,0
1564503488031.25,-19.54,0,0,0,0,0
1564503488046.88,-21.63,0,0,0,0,0
1564503488062.5,-23.41,0,0,0,0,0
1564503488078.13,-25.02,0,0,0,0,0
1564503488093.75,-26.55,0,0,0,0,0
1564503488109.38,-28.06,0,0,0,0,0
1564503488125,-29.49,0,0,0,0,0
1564503488140.63,-30.83,0,0,0,0,0
1564503488156.25,-32.11,0,0,0,0,0
1564503488171.88,-33.51,0,0,0,0,0
1564503488187.5,-35.32,0,0,0,0,0
1564503488203.13,-37.78,0,0,0,0,0
1564503488218.75,-40.89,0,0,0,0,0
1564503488234.38,-44.24,0,0,0,0,0
1564503488250,-47.01,0,0,0,0,0
1564503488265.63,-48.19,0,0,0,0,0
1564503488281.25,-46.84,0,0,0,0,0
1564503488296.88,-42.41,0,0,0,0,0
1564503488312.5,-34.87,0,0,0,0,0
1564503488328.13,-24.64,0,0,0,0,0
1564503488343.75,-12.45,0,0,0,0,0
1564503488359.38,0.88,0,0,0,0,0
1564503488375,14.47,0,0,0,0,0
1564503488390.63,27.39,0,0,0,0,0
1564503488406.25,38.7,0,0,0,0,0
1564503488421.88,47.52,0,0,0,0,0
1564503488437.5,53.27,0,0,0,0,0
1564503488453.13,55.86,0,0,0,0,0
1564503488468.75,55.72,0,0,0,0,0
1564503488484.38,53.63,0,0,0,0,0
1564503488500,50.48,0,0,0,0,0
1564503488515.63,46.89,0,0,0,0,0
1564503488531.25,43.11,0,0,0,0,0
1564503488546.88,39.1,0,0,0,0,0
1564503488562.5,34.67,0,0,0,0,0
1564503488578.13,29.67,0,0,0,0,0
1564503488593.75,23.97,0,0,0,0,0
1564503488609.38,17.45,0,0,0,0,0
1564503488625,9.92,0,0,0,0,0
1564503488640.63,1.23,0,0,0,0,0
1564503488656.25,-8.51,0,0,0,0,0
1564503488671.88,-18.96,0,0,0,0,0
1564503488687.5,-29.59,0,0,0,0,0
1564503488703.13,-40.03,0,0,0,0,0
1564503488718.75,-50.47,0,0,0,0,0
1564503488734.38,-61.73,0,0,0,0,0
1564503488750,-75.01,0,0,0,0,0
1564503488765.63,-91.32,0,0,0,0,0
1564503488781.25,-110.68,0,0,0,0,0
1564503488796.88,-131.91,0,0,0,0,0
1564503488812.5,-152.83,0,0,0,0,0
1564503488828.13,-170.99,0,0,0,0,0
1564503488843.75,-184.33,0,0,0,0,0
1564503488859.38,-191.85,0,0,0,0,0
1564503488875,-193.7,0,0,0,0,0
1564503488890.63,-190.93,0,0,0,0,0
1564503488906.25,-185.04,0,0,0,0,0
1564503488921.88,-177.38,0,0,0,0,0
1564503488937.5,-168.93,0,0,0,0,0
1564503488953.13,-160.12,0,0,0,0,0
1564503488968.75,-151.12,0,0,0,0,0
1564503488984.38,-142.11,0,0,0,0,0
1564503489000,-133.23,0,0,0,0,0
1564503489015.63,-124.07,0,0,0,0,0
1564503489031.25,-113.27,0,0,0,0,0
1564503489046.88,-98.73,0,0,0,0,0
1564503489062.5,-78.68,0,0,0,0,0
1564503489078.13,-53.11,0,0,0,0,0
1564503489093.75,-24.45,0,0,0,0,0
1564503489109.38,3.48,0,0,0,0,0
1564503489125,27.55,0,0,0,0,0
1564503489140.63,47.6,0,0,0,0,0
1564503489156.25,66.69,0,0,0,0,0
1564503489171.88,88.66,0,0,0,0,0
1564503489187.5,114.93,0,0,0,0,0
1564503489203.13,142.4,0,0,0,0,0
1564503489218.75,164.71,0,0,0,0,0
1564503489234.38,175.99,0,0,0,0,0
1564503489250,174.8,0,0,0,0,0
1564503489265.63,165.37,0,0,0,0,0
1564503489281.25,155.15,0,0,0,0,0
1564503489296.88,150.49,0,0,0,0,0
1564503489312.5,153.14,0,0,0,0,0
1564503489328.13,160.1,0,0,0,0,0
1564503489343.75,166.61,0,0,0,0,0
1564503489359.38,169.46,0,0,0,0,0
1564503489375,168.38,0,0,0,0,0
1564503489390.63,164.5,0,0,0,0,0
1564503489406.25,157.56,0,0,0,0,0
1564503489421.88,144.44,0,0,0,0,0
1564503489437.5,120.56,0,0,0,0,0
1564503489453.13,83.82,0,0,0,0,0
1564503489468.75,38.01,0,0,0,0,0
1564503489484.38,-6.95,0,0,0,0,0
1564503489500,-38.74,0,0,0,0,0
1564503489515.63,-48.32,0,0,0,0,0
1564503489531.25,-34.25,0,0,0,0,0
1564503489546.88,-3.24,0,0,0,0,0
1564503489562.5,33.64,0,0,0,0,0
1564503489578.13,66.34,0,0,0,0,0
1564503489593.75,89.79,0,0,0,0,0
1564503489609.38,104.55,0,0,0,0,0
1564503489625,113.48,0,0,0,0,0
1564503489640.63,117.66,0,0,0,0,0
1564503489656.25,113.99,0,0,0,0,0
1564503489671.88,96.32,0,0,0,0,0
1564503489687.5,59.89,0,0,0,0,0
1564503489703.13,5.91,0,0,0,0,0
1564503489718.75,-56.66,0,0,0,0,0
1564503489734.38,-113.99,0,0,0,0,0
1564503489750,-153.27,0,0,0,0,0
1564503489765.63,-168.19,0,0,0,0,0
1564503489781.25,-160.72,0,0,0,0,0
1564503489796.88,-138.36,0,0,0,0,0
1564503489812.5,-109.17,0,0,0,0,0
1564503489828.13,-77.99,0,0,0,0,0
1564503489843.75,-46.11,0,0,0,0,0
1564503489859.38,-13.57,0,0,0,0,0
1564503489875,17.81,0,0,0,0,0
1564503489890.63,43.73,0,0,0,0,0
1564503489906.25,59.2,0,0,0,0,0
1564503489921.88,61.36,0,0,0,0,0
1564503489937.5,50.64,0,0,0,0,0
1564503489953.13,29.56,0,0,0,0,0
1564503489968.75,0.45,0,0,0,0,0
1564503489984.38,-35.61,0,0,0,0,0
1564503490000,-77.38,0,0,0,0,0
1564503490015.63,-120.9,0,0,0,0,0
1564503490031.25,-158.02,0,0,0,0,0
1564503490046.88,-178.43,0,0,0,0,0
1564503490062.5,-173.79,0,0,0,0,0
1564503490078.13,-141.9,0,0,0,0,0
1564503490093.75,-88.04,0,0,0,0,0
1564503490109.38,-22.59,0,0,0,0,0
1564503490125,42.91,0,0,0,0,0
1564503490140.63,99.32,0,0,0,0,0
1564503490156.25,140.91,0,0,0,0,0
1564503490171.88,164.69,0,0,0,0,0
1564503490187.5,169.6,0,0,0,0,0
1564503490203.13,157.08,0,0,0,0,0
1564503490218.75,132.35,0,0,0,0,0
1564503490234.38,104.6,0,0,0,0,0
1564503490250,84.73,0,0,0,0,0
1564503490265.63,81.12,0,0,0,0,0
1564503490281.25,95.49,0,0,0,0,0
1564503490296.88,121.25,0,0,0,0,0
1564503490312.5,146.14,0,0,0,0,0
1564503490328.13,157.3,0,0,0,0,0
1564503490343.75,146.74,0,0,0,0,0
1564503490359.38,113.97,0,0,0,0,0
1564503490375,65,0,0,0,0,0
1564503490390.63,8.55,0,0,0,0,0
1564503490406.25,-48.37,0,0,0,0,0
1564503490421.88,-102.61,0,0,0,0,0
1564503490437.5,-154.1,0,0,0,0,0
1564503490453.13,-202.78,0,0,0,0,0
1564503490468.75,-246.22,0,0,0,0,0
1564503490484.38,-279.02,0,0,0,0,0
1564503490500,-294.65,0,0,0,0,0
1564503490515.63,-288.67,0,0,0,0,0
1564503490531.25,-260.79,0,0,0,0,0
1564503490546.88,-214.87,0,0,0,0,0
1564503490562.5,-156.9,0,0,0,0,0
1564503490578.13,-92.41,0,0,0,0,0
1564503490593.75,-24.97,0,0,0,0,0
1564503490609.38,43.29,0,0,0,0,0
1564503490625,110.14,0,0,0,0,0
1564503490640.63,171.68,0,0,0,0,0
1564503490656.25,222.15,0,0,0,0,0
1564503490671.88,255.73,0,0,0,0,0
1564503490687.5,268.78,0,0,0,0,0
1564503490703.13,262.44,0,0,0,0,0
1564503490718.75,242.98,0,0,0,0,0
1564503490734.38,219.58,0,0,0,0,0
1564503490750,200.46,0,0,0,0,0
1564503490765.63,189.53,0,0,0,0,0
1564503490781.25,185.24,0,0,0,0,0
1564503490796.88,182.34,0,0,0,0,0
1564503490812.5,176.01,0,0,0,0,0
1564503490828.13,165.32,0,0,0,0,0
1564503490843.75,154.42,0,0,0,0,0
1564503490859.38,149.92,0,0,0,0,0
1564503490875,156.21,0,0,0,0,0
1564503490890.63,171.83,0,0,0,0,0
1564503490906.25,188.97,0,0,0,0,0
1564503490921.88,196.84,0,0,0,0,0
1564503490937.5,186.92,0,0,0,0,0
1564503490953.13,157.14,0,0,0,0,0
1564503490968.75,111.86,0,0,0,0,0
1564503490984.38,58.67,0,0,0,0,0
1564503491000,4.46,0,0,0,0,0
1564503491015.63,-46.5,0,0,0,0,0
1564503491031.25,-91.48,0,0,0,0,0
1564503491046.88,-127.23,0,0,0,0,0
1564503491062.5,-149.41,0,0,0,0,0
1564503491078.13,-154.24,0,0,0,0,0
1564503491093.75,-141.56,0,0,0,0,0
1564503491109.38,-117.06,0,0,0,0,0
1564503491125,-91.08,0,0,0,0,0
1564503491140.63,-74.97,0,0,0,0,0
1564503491156.25,-76.46,0,0,0,0,0
1564503491171.88,-96.8,0,0,0,0,0
1564503491187.5,-131.93,0,0,0,0,0
1564503491203.13,-176.02,0,0,0,0,0
1564503491218.75,-224.89,0,0,0,0,0
1564503491234.38,-277.32,0,0,0,0,0
1564503491250,-333.02,0,0,0,0,0
1564503491265.63,-389.31,0,0,0,0,0
1564503491281.25,-439.13,0,0,0,0,0
1564503491296.88,-472.23,0,0,0,0,0
1564503491312.5,-478.81,0,0,0,0,0
1564503491328.13,-453.83,0,0,0,0,0
1564503491343.75,-399.12,0,0,0,0,0
1564503491359.38,-322.85,0,0,0,0,0
1564503491375,-237.02,0,0,0,0,0
1564503491390.63,-154.3,0,0,0,0,0
1564503491406.25,-85.41,0,0,0,0,0
1564503491421.88,-37.71,0,0,0,0,0
1564503491437.5,-14.44,0,0,0,0,0
1564503491453.13,-14.33,0,0,0,0,0
1564503491468.75,-31.72,0,0,0,0,0
1564503491484.38,-57.71,0,0,0,0,0
1564503491500,-82.57,0,0,0,0,0
1564503491515.63,-98.56,0,0,0,0,0
1564503491531.25,-101.81,0,0,0,0,0
1564503491546.88,-92.4,0,0,0,0,0
1564503491562.5,-72.71,0,0,0,0,0
1564503491578.13,-45.42,0,0,0,0,0
1564503491593.75,-12.66,0,0,0,0,0
1564503491609.38,23.35,0,0,0,0,0
1564503491625,59.2,0,0,0,0,0
1564503491640.63,89.86,0,0,0,0,0
1564503491656.25,109.9,0,0,0,0,0
1564503491671.88,115.81,0,0,0,0,0
1564503491687.5,107.87,0,0,0,0,0
1564503491703.13,90.1,0,0,0,0,0
1564503491718.75,68.58,0,0,0,0,0
1564503491734.38,48.57,0,0,0,0,0
1564503491750,32.58,0,0,0,0,0
1564503491765.63,20.14,0,0,0,0,0
1564503491781.25,9.29,0,0,0,0,0
1564503491796.88,-1.58,0,0,0,0,0
1564503491812.5,-12.58,0,0,0,0,0
1564503491828.13,-22.46,0,0,0,0,0
1564503491843.75,-29.69,0,0,0,0,0
1564503491859.38,-33.64,0,0,0,0,0
1564503491875,-35.04,0,0,0,0,0
1564503491890.63,-35.6,0,0,0,0,0
1564503491906.25,-37.2,0,0,0,0,0
1564503491921.88,-41.04,0,0,0,0,0
1564503491937.5,-47.44,0,0,0,0,0
1564503491953.13,-56.01,0,0,0,0,0
1564503491968.75,-66.05,0,0,0,0,0
1564503491984.38,-76.84,0,0,0,0,0
1564503492000,-87.6,0,0,0,0,0
1564503492015.63,-97.31,0,0,0,0,0
1564503492031.25,-104.75,0,0,0,0,0
1564503492046.88,-108.81,0,0,0,0,0
1564503492062.5,-109.16,0,0,0,0,0
1564503492078.13,-106.84,0,0,0,0,0
1564503492093.75,-104.24,0,0,0,0,0
1564503492109.38,-104.34,0,0,0,0,0
1564503492125,-109.55,0,0,0,0,0
1564503492140.63,-120.6,0,0,0,0,0
1564503492156.25,-136.19,0,0,0,0,0
1564503492171.88,-153.73,0,0,0,0,0
1564503492187.5,-170.73,0,0,0,0,0
1564503492203.13,-185.87,0,0,0,0,0
1564503492218.75,-199.19,0,0,0,0,0
1564503492234.38,-211.15,0,0,0,0,0
1564503492250,-221.37,0,0,0,0,0
1564503492265.63,-227.75,0,0,0,0,0
1564503492281.25,-226.97,0,0,0,0,0
1564503492296.88,-215.96,0,0,0,0,0
1564503492312.5,-193.53,0,0,0,0,0
1564503492328.13,-161.07,0,0,0,0,0
1564503492343.75,-121.87,0,0,0,0,0
1564503492359.38,-79.56,0,0,0,0,0
1564503492375,-36.8,0,0,0,0,0
1564503492390.63,4.98,0,0,0,0,0
1564503492406.25,44.73,0,0,0,0,0
1564503492421.88,80.63,0,0,0,0,0
1564503492437.5,109.59,0,0,0,0,0
1564503492453.13,128.11,0,0,0,0,0
1564503492468.75,133.83,0,0,0,0,0
1564503492484.38,127.08,0,0,0,0,0
1564503492500,111.32,0,0,0,0,0
1564503492515.63,92.17,0,0,0,0,0
1564503492531.25,75.69,0,0,0,0,0
1564503492546.88,66.51,0,0,0,0,0
1564503492562.5,66.87,0,0,0,0,0
1564503492578.13,76.38,0,0,0,0,0
1564503492593.75,92.92,0,0,0,0,0
1564503492609.38,113.48,0,0,0,0,0
1564503492625,134.96,0,0,0,0,0
1564503492640.63,154.45,0,0,0,0,0
1564503492656.25,169.41,0,0,0,0,0
1564503492671.88,178.13,0,0,0,0,0
1564503492687.5,180.55,0,0,0,0,0
1564503492703.13,179.11,0,0,0,0,0
1564503492718.75,178.7,0,0,0,0,0
1564503492734.38,185.25,0,0,0,0,0
1564503492750,203.12,0,0,0,0,0
1564503492765.63,232.63,0,0,0,0,0
1564503492781.25,269.1,0,0,0,0,0
1564503492796.88,304.35,0,0,0,0,0
1564503492812.5,330,0,0,0,0,0
1564503492828.13,340.87,0,0,0,0,0
1564503492843.75,336.78,0,0,0,0,0
1564503492859.38,321.9,0,0,0,0,0
1564503492875,302.26,0,0,0,0,0
1564503492890.63,283.21,0,0,0,0,0
1564503492906.25,267.77,0,0,0,0,0
1564503492921.88,256.73,0,0,0,0,0
1564503492937.5,249.26,0,0,0,0,0
1564503492953.13,243.67,0,0,0,0,0
1564503492968.75,237.29,0,0,0,0,0
1564503492984.38,226.32,0,0,0,0,0
1564503493000,206,0,0,0,0,0
1564503493015.63,171.78,0,0,0,0,0
1564503493031.25,121.15,0,0,0,0,0
1564503493046.88,55.28,0,0,0,0,0
1564503493062.5,-20.54,0,0,0,0,0
1564503493078.13,-98.14,0,0,0,0,0
1564503493093.75,-168.88,0,0,0,0,0
1564503493109.38,-226.48,0,0,0,0,0
1564503493125,-268.73,0,0,0,0,0
1564503493140.63,-297.58,0,0,0,0,0
1564503493156.25,-317.43,0,0,0,0,0
1564503493171.88,-332.46,0,0,0,0,0
1564503493187.5,-344.48,0,0,0,0,0
1564503493203.13,-352.26,0,0,0,0,0
1564503493218.75,-352.55,0,0,0,0,0
1564503493234.38,-342.17,0,0,0,0,0
1564503493250,-319.79,0,0,0,0,0
1564503493265.63,-286.49,0,0,0,0,0
1564503493281.25,-244.89,0,0,0,0,0
1564503493296.88,-197.65,0,0,0,0,0
1564503493312.5,-146.53,0,0,0,0,0
1564503493328.13,-92.57,0,0,0,0,0
1564503493343.75,-37.15,0,0,0,0,0
1564503493359.38,16.99,0,0,0,0,0
1564503493375,65.54,0,0,0,0,0
1564503493390.63,103.52,0,0,0,0,0
1564503493406.25,126.84,0,0,0,0,0
1564503493421.88,133.62,0,0,0,0,0
1564503493437.5,124.72,0,0,0,0,0
1564503493453.13,103.59,0,0,0,0,0
1564503493468.75,75.5,0,0,0,0,0
1564503493484.38,46.55,0,0,0,0,0
1564503493500,22.7,0,0,0,0,0
1564503493515.63,8.75,0,0,0,0,0
1564503493531.25,7.44,0,0,0,0,0
1564503493546.88,19.12,0,0,0,0,0
1564503493562.5,42.21,0,0,0,0,0
1564503493578.13,74.22,0,0,0,0,0
1564503493593.75,112.71,0,0,0,0,0
1564503493609.38,155.47,0,0,0,0,0
1564503493625,200.01,0,0,0,0,0
1564503493640.63,242.87,0,0,0,0,0
1564503493656.25,279.65,0,0,0,0,0
1564503493671.88,306.33,0,0,0,0,0
1564503493687.5,320.91,0,0,0,0,0
1564503493703.13,324.49,0,0,0,0,0
1564503493718.75,320.62,0,0,0,0,0
1564503493734.38,313.31,0,0,0,0,0
1564503493750,304.77,0,0,0,0,0
1564503493765.63,294.56,0,0,0,0,0
1564503493781.25,280.51,0,0,0,0,0
1564503493796.88,260.54,0,0,0,0,0
1564503493812.5,234.26,0,0,0,0,0
1564503493828.13,203.28,0,0,0,0,0
1564503493843.75,170.13,0,0,0,0,0
1564503493859.38,136.76,0,0,0,0,0
1564503493875,103.73,0,0,0,0,0
1564503493890.63,70.78,0,0,0,0,0
1564503493906.25,38.13,0,0,0,0,0
1564503493921.88,7.52,0,0,0,0,0
1564503493937.5,-17.92,0,0,0,0,0
1564503493953.13,-34.86,0,0,0,0,0
1564503493968.75,-41.44,0,0,0,0,0
1564503493984.38,-38.27,0,0,0,0,0
1564503494000,-28.29,0,0,0,0,0
1564503494015.63,-15.55,0,0,0,0,0
1564503494031.25,-3.61,0,0,0,0,0
1564503494046.88,5.7,0,0,0,0,0
1564503494062.5,12.51,0,0,0,0,0
1564503494078.13,18.33,0,0,0,0,0
1564503494093.75,24.93,0,0,0,0,0
1564503494109.38,33.56,0,0,0,0,0
1564503494125,44.53,0,0,0,0,0
1564503494140.63,57.32,0,0,0,0,0
1564503494156.25,70.57,0,0,0,0,0
1564503494171.88,82.2,0,0,0,0,0
1564503494187.5,88.9,0,0,0,0,0
1564503494203.13,86.37,0,0,0,0,0
1564503494218.75,70.26,0,0,0,0,0
1564503494234.38,38.11,0,0,0,0,0
1564503494250,-8.64,0,0,0,0,0
1564503494265.63,-63.34,0,0,0,0,0
1564503494281.25,-114.64,0,0,0,0,0
1564503494296.88,-149.32,0,0,0,0,0
1564503494312.5,-156.45,0,0,0,0,0
1564503494328.13,-131.79,0,0,0,0,0
1564503494343.75,-79.92,0,0,0,0,0
1564503494359.38,-13.12,0,0,0,0,0
1564503494375,52.63,0,0,0,0,0
1564503494390.63,102.92,0,0,0,0,0
1564503494406.25,129.03,0,0,0,0,0
1564503494421.88,129.15,0,0,0,0,0
1564503494437.5,106.65,0,0,0,0,0
1564503494453.13,66.99,0,0,0,0,0
1564503494468.75,15.57,0,0,0,0,0
1564503494484.38,-42.24,0,0,0,0,0
1564503494500,-99.55,0,0,0,0,0
1564503494515.63,-146.97,0,0,0,0,0
1564503494531.25,-174.37,0,0,0,0,0
1564503494546.88,-175.06,0,0,0,0,0
1564503494562.5,-150.21,0,0,0,0,0
1564503494578.13,-109.9,0,0,0,0,0
1564503494593.75,-69.4,0,0,0,0,0
1564503494609.38,-42.49,0,0,0,0,0
1564503494625,-35.64,0,0,0,0,0
1564503494640.63,-46.59,0,0,0,0,0
1564503494656.25,-67.07,0,0,0,0,0
1564503494671.88,-87.93,0,0,0,0,0
1564503494687.5,-102.46,0,0,0,0,0
1564503494703.13,-107.1,0,0,0,0,0
1564503494718.75,-100.65,0,0,0,0,0
1564503494734.38,-83.15,0,0,0,0,0
1564503494750,-56.91,0,0,0,0,0
1564503494765.63,-27.35,0,0,0,0,0
1564503494781.25,-2.68,0,0,0,0,0
1564503494796.88,8.98,0,0,0,0,0
1564503494812.5,3.53,0,0,0,0,0
1564503494828.13,-16.98,0,0,0,0,0
1564503494843.75,-45.41,0,0,0,0,0
1564503494859.38,-73.11,0,0,0,0,0
1564503494875,-93.34,0,0,0,0,0
1564503494890.63,-103.29,0,0,0,0,0
1564503494906.25,-103.31,0,0,0,0,0
1564503494921.88,-95.41,0,0,0,0,0
1564503494937.5,-82.11,0,0,0,0,0
1564503494953.13,-65.85,0,0,0,0,0
1564503494968.75,-48.76,0,0,0,0,0
1564503494984.38,-32.59,0,0,0,0,0
1564503495000,-18.8,0,0,0,0,0
1564503495015.63,-8.4,0,0,0,0,0
1564503495031.25,-2.3,0,0,0,0,0
1564503495046.88,-0.86,0,0,0,0,0
1564503495062.5,-3.6,0,0,0,0,0
1564503495078.13,-8.91,0,0,0,0,0
1564503495093.75,-15.12,0,0,0,0,0
1564503495109.38,-21.77,0,0,0,0,0
1564503495125,-30.81,0,0,0,0,0
1564503495140.63,-46.12,0,0,0,0,0
1564503495156.25,-70.11,0,0,0,0,0
1564503495171.88,-100.84,0,0,0,0,0
1564503495187.5,-130.15,0,0,0,0,0
1564503495203.13,-146.41,0,0,0,0,0
1564503495218.75,-140.72,0,0,0,0,0
1564503495234.38,-111.65,0,0,0,0,0
1564503495250,-65.86,0,0,0,0,0
1564503495265.63,-13.56,0,0,0,0,0
1564503495281.25,37.6,0,0,0,0,0
1564503495296.88,86.3,0,0,0,0,0
1564503495312.5,135.2,0,0,0,0,0
1564503495328.13,185.39,0,0,0,0,0
1564503495343.75,232.26,0,0,0,0,0
1564503495359.38,266.09,0,0,0,0,0
1564503495375,277.47,0,0,0,0,0
1564503495390.63,263.56,0,0,0,0,0
1564503495406.25,231.12,0,0,0,0,0
1564503495421.88,194.34,0,0,0,0,0
1564503495437.5,168.1,0,0,0,0,0
1564503495453.13,161.26,0,0,0,0,0
1564503495468.75,173.18,0,0,0,0,0
1564503495484.38,195.18,0,0,0,0,0
1564503495500,215.28,0,0,0,0,0
1564503495515.63,223.54,0,0,0,0,0
1564503495531.25,215.4,0,0,0,0,0
1564503495546.88,191.87,0,0,0,0,0
1564503495562.5,157.3,0,0,0,0,0
1564503495578.13,116.83,0,0,0,0,0
1564503495593.75,74.41,0,0,0,0,0
1564503495609.38,33.12,0,0,0,0,0
1564503495625,-3.92,0,0,0,0,0
1564503495640.63,-33.04,0,0,0,0,0
1564503495656.25,-50.7,0,0,0,0,0
1564503495671.88,-55.91,0,0,0,0,0
1564503495687.5,-51.88,0,0,0,0,0
1564503495703.13,-45.39,0,0,0,0,0
1564503495718.75,-43.51,0,0,0,0,0
1564503495734.38,-49,0,0,0,0,0
1564503495750,-57.57,0,0,0,0,0
1564503495765.63,-59.87,0,0,0,0,0
1564503495781.25,-47.53,0,0,0,0,0
1564503495796.88,-18.98,0,0,0,0,0
1564503495812.5,18.23,0,0,0,0,0
1564503495828.13,50.66,0,0,0,0,0
1564503495843.75,65.86,0,0,0,0,0
1564503495859.38,58.6,0,0,0,0,0
1564503495875,32.68,0,0,0,0,0
1564503495890.63,-2.4,0,0,0,0,0
1564503495906.25,-37.34,0,0,0,0,0
1564503495921.88,-67.54,0,0,0,0,0
1564503495937.5,-93.89,0,0,0,0,0
1564503495953.13,-120.21,0,0,0,0,0
1564503495968.75,-150,0,0,0,0,0
1564503495984.38,-184.31,0,0,0,0,0
1564503496000,-222.11,0,0,0,0,0
1564503496015.63,-262.25,0,0,0,0,0
1564503496031.25,-304.75,0,0,0,0,0
1564503496046.88,-350.33,0,0,0,0,0
1564503496062.5,-398.41,0,0,0,0,0
1564503496078.13,-444.82,0,0,0,0,0
1564503496093.75,-480.97,0,0,0,0,0
1564503496109.38,-495.77,0,0,0,0,0
1564503496125,-480.3,0,0,0,0,0
1564503496140.63,-432.95,0,0,0,0,0
1564503496156.25,-362.14,0,0,0,0,0
1564503496171.88,-284.65,0,0,0,0,0
1564503496187.5,-219.33,0,0,0,0,0
1564503496203.13,-179.48,0,0,0,0,0
1564503496218.75,-167.31,0,0,0,0,0
1564503496234.38,-173.66,0,0,0,0,0
1564503496250,-182.84,0,0,0,0,0
1564503496265.63,-179.89,0,0,0,0,0
1564503496281.25,-156.37,0,0,0,0,0
1564503496296.88,-111.86,0,0,0,0,0
1564503496312.5,-51.59,0,0,0,0,0
1564503496328.13,17.45,0,0,0,0,0
1564503496343.75,88.69,0,0,0,0,0
1564503496359.38,155.92,0,0,0,0,0
1564503496375,211.78,0,0,0,0,0
1564503496390.63,247.48,0,0,0,0,0
1564503496406.25,255.37,0,0,0,0,0
1564503496421.88,233.35,0,0,0,0,0
1564503496437.5,188.39,0,0,0,0,0
1564503496453.13,136.06,0,0,0,0,0
1564503496468.75,95.18,0,0,0,0,0
1564503496484.38,80.05,0,0,0,0,0
1564503496500,94.15,0,0,0,0,0
1564503496515.63,128.76,0,0,0,0,0
1564503496531.25,167,0,0,0,0,0
1564503496546.88,191.68,0,0,0,0,0
1564503496562.5,192.33,0,0,0,0,0
1564503496578.13,168.24,0,0,0,0,0
1564503496593.75,126.72,0,0,0,0,0
1564503496609.38,77.93,0,0,0,0,0
1564503496625,29.69,0,0,0,0,0
1564503496640.63,-15.32,0,0,0,0,0
1564503496656.25,-58.73,0,0,0,0,0
1564503496671.88,-103.34,0,0,0,0,0
1564503496687.5,-149.56,0,0,0,0,0
1564503496703.13,-193.87,0,0,0,0,0
1564503496718.75,-230.18,0,0,0,0,0
1564503496734.38,-252.86,0,0,0,0,0
1564503496750,-259.62,0,0,0,0,0
1564503496765.63,-252.49,0,0,0,0,0
1564503496781.25,-236.69,0,0,0,0,0
1564503496796.88,-217.97,0,0,0,0,0
1564503496812.5,-200.31,0,0,0,0,0
1564503496828.13,-184.95,0,0,0,0,0
1564503496843.75,-171.21,0,0,0,0,0
1564503496859.38,-158.49,0,0,0,0,0
1564503496875,-147.76,0,0,0,0,0
1564503496890.63,-141.68,0,0,0,0,0
1564503496906.25,-143.25,0,0,0,0,0
1564503496921.88,-153.74,0,0,0,0,0
1564503496937.5,-171.21,0,0,0,0,0
1564503496953.13,-190.48,0,0,0,0,0
1564503496968.75,-204.56,0,0,0,0,0
1564503496984.38,-207.01,0,0,0,0,0
1564503497000,-194.07,0,0,0,0,0
1564503497015.63,-165.55,0,0,0,0,0
1564503497031.25,-124.75,0,0,0,0,0
1564503497046.88,-77.02,0,0,0,0,0
1564503497062.5,-28.06,0,0,0,0,0
1564503497078.13,17.66,0,0,0,0,0
1564503497093.75,57.46,0,0,0,0,0
1564503497109.38,90.26,0,0,0,0,0
1564503497125,115.68,0,0,0,0,0
1564503497140.63,133.22,0,0,0,0,0
1564503497156.25,141.98,0,0,0,0,0
1564503497171.88,140.98,0,0,0,0,0
1564503497187.5,129.96,0,0,0,0,0
1564503497203.13,110.31,0,0,0,0,0
1564503497218.75,85.32,0,0,0,0,0
1564503497234.38,59.66,0,0,0,0,0
1564503497250,38.32,0,0,0,0,0
1564503497265.63,25.2,0,0,0,0,0
1564503497281.25,21.99,0,0,0,0,0
1564503497296.88,27.8,0,0,0,0,0
1564503497312.5,39.6,0,0,0,0,0
1564503497328.13,53.21,0,0,0,0,0
1564503497343.75,64.58,0,0,0,0,0
1564503497359.38,70.87,0,0,0,0,0
1564503497375,71.37,0,0,0,0,0
1564503497390.63,67.84,0,0,0,0,0
1564503497406.25,64.24,0,0,0,0,0
1564503497421.88,65.57,0,0,0,0,0
1564503497437.5,76.24,0,0,0,0,0
1564503497453.13,98.34,0,0,0,0,0
1564503497468.75,130.56,0,0,0,0,0
1564503497484.38,168.55,0,0,0,0,0
1564503497500,206.48,0,0,0,0,0
1564503497515.63,239.05,0,0,0,0,0
1564503497531.25,262.92,0,0,0,0,0
1564503497546.88,276.85,0,0,0,0,0
1564503497562.5,281.05,0,0,0,0,0
1564503497578.13,276.3,0,0,0,0,0
1564503497593.75,263.57,0,0,0,0,0
1564503497609.38,244.08,0,0,0,0,0
1564503497625,219.58,0,0,0,0,0
1564503497640.63,192.06,0,0,0,0,0
1564503497656.25,163.24,0,0,0,0,0
1564503497671.88,133.94,0,0,0,0,0
1564503497687.5,104.04,0,0,0,0,0
1564503497703.13,73.18,0,0,0,0,0
1564503497718.75,41.51,0,0,0,0,0
1564503497734.38,10.08,0,0,0,0,0
1564503497750,-19.54,0,0,0,0,0
1564503497765.63,-46.2,0,0,0,0,0
1564503497781.25,-69.85,0,0,0,0,0
1564503497796.88,-91.49,0,0,0,0,0
1564503497812.5,-112.18,0,0,0,0,0
1564503497828.13,-131.84,0,0,0,0,0
1564503497843.75,-148.56,0,0,0,0,0
1564503497859.38,-158.89,0,0,0,0,0
1564503497875,-159.04,0,0,0,0,0
1564503497890.63,-146.43,0,0,0,0,0
1564503497906.25,-120.8,0,0,0,0,0
1564503497921.88,-84.74,0,0,0,0,0
1564503497937.5,-43.09,0,0,0,0,0
1564503497953.13,-1.55,0,0,0,0,0
1564503497968.75,34.98,0,0,0,0,0
1564503497984.38,63.65,0,0,0,0,0
1564503498000,84.06,0,0,0,0,0
1564503498015.63,97.55,0,0,0,0,0
1564503498031.25,105.86,0,0,0,0,0
1564503498046.88,109.76,0,0,0,0,0
1564503498062.5,108.4,0,0,0,0,0
1564503498078.13,99.76,0,0,0,0,0
1564503498093.75,81.96,0,0,0,0,0
1564503498109.38,54.61,0,0,0,0,0
1564503498125,19.76,0,0,0,0,0
1564503498140.63,-18.39,0,0,0,0,0
1564503498156.25,-54.52,0,0,0,0,0
1564503498171.88,-83.77,0,0,0,0,0
1564503498187.5,-103.03,0,0,0,0,0
1564503498203.13,-111.46,0,0,0,0,0
1564503498218.75,-110.31,0,0,0,0,0
1564503498234.38,-102.28,0,0,0,0,0
1564503498250,-90.84,0,0,0,0,0
1564503498265.63,-79.67,0,0,0,0,0
1564503498281.25,-72.05,0,0,0,0,0
1564503498296.88,-70.2,0,0,0,0,0
1564503498312.5,-74.39,0,0,0,0,0
1564503498328.13,-82.36,0,0,0,0,0
1564503498343.75,-89.48,0,0,0,0,0
1564503498359.38,-89.97,0,0,0,0,0
1564503498375,-78.71,0,0,0,0,0
1564503498390.63,-53.2,0,0,0,0,0
1564503498406.25,-14.58,0,0,0,0,0
1564503498421.88,32.6,0,0,0,0,0
1564503498437.5,81.84,0,0,0,0,0
1564503498453.13,126.56,0,0,0,0,0
1564503498468.75,161.77,0,0,0,0,0
1564503498484.38,184.77,0,0,0,0,0
1564503498500,194.94,0,0,0,0,0
1564503498515.63,192.97,0,0,0,0,0
1564503498531.25,180.17,0,0,0,0,0
1564503498546.88,158.1,0,0,0,0,0
1564503498562.5,128.72,0,0,0,0,0
1564503498578.13,94.64,0,0,0,0,0
