Timestamp,BVP,Note,AGG,ED,SIB,Condition
1570468197000,-0,0,0,0,0,0
1570468197015.63,-0,0,0,0,0,0
1570468197031.25,-0,0,0,0,0,0
1570468197046.88,-0,0,0,0,0,0
1570468197062.5,-0,0,0,0,0,0
1570468197078.13,-0,0,0,0,0,0
1570468197093.75,-0,0,0,0,0,0
1570468197109.38,-0,0,0,0,0,0
1570468197125,-0,0,0,0,0,0
1570468197140.63,-0,0,0,0,0,0
1570468197156.25,0,0,0,0,0,0
1570468197171.88,0.01,0,0,0,0,0
1570468197187.5,0.01,0,0,0,0,0
1570468197203.13,-0,0,0,0,0,0
1570468197218.75,-0.03,0,0,0,0,0
1570468197234.38,-0.05,0,0,0,0,0
1570468197250,-0.05,0,0,0,0,0
1570468197265.63,0,0,0,0,0,0
1570468197281.25,0.13,0,0,0,0,0
1570468197296.88,0.36,0,0,0,0,0
1570468197312.5,0.66,0,0,0,0,0
1570468197328.13,1.01,0,0,0,0,0
1570468197343.75,1.37,0,0,0,0,0
1570468197359.38,1.72,0,0,0,0,0
1570468197375,2.06,0,0,0,0,0
1570468197390.63,2.4,0,0,0,0,0
1570468197406.25,2.79,0,0,0,0,0
1570468197421.88,3.24,0,0,0,0,0
1570468197437.5,3.8,0,0,0,0,0
1570468197453.13,4.42,0,0,0,0,0
1570468197468.75,5.06,0,0,0,0,0
1570468197484.38,5.66,0,0,0,0,0
1570468197500,6.2,0,0,0,0,0
1570468197515.63,6.68,0,0,0,0,0
1570468197531.25,7.15,0,0,0,0,0
1570468197546.88,7.68,0,0,0,0,0
1570468197562.5,8.31,0,0,0,0,0
1570468197578.13,9.14,0,0,0,0,0
1570468197593.75,10.09,0,0,0,0,0
1570468197609.38,11.04,0,0,0,0,0
1570468197625,11.88,0,0,0,0,0
1570468197640.63,12.56,0,0,0,0,0
1570468197656.25,13.14,0,0,0,0,0
1570468197671.88,13.76,0,0,0,0,0
1570468197687.5,14.65,0,0,0,0,0
1570468197703.13,15.96,0,0,0,0,0
1570468197718.75,17.91,0,0,0,0,0
1570468197734.38,20.32,0,0,0,0,0
1570468197750,22.9,0,0,0,0,0
1570468197765.63,25.38,0,0,0,0,0
1570468197781.25,27.58,0,0,0,0,0
1570468197796.88,29.57,0,0,0,0,0
1570468197812.5,31.68,0,0,0,0,0
1570468197828.13,34.32,0,0,0,0,0
1570468197843.75,37.81,0,0,0,0,0
1570468197859.38,42.54,0,0,0,0,0
1570468197875,48.15,0,0,0,0,0
1570468197890.63,54.1,0,0,0,0,0
1570468197906.25,59.83,0,0,0,0,0
1570468197921.88,64.97,0,0,0,0,0
1570468197937.5,69.58,0,0,0,0,0
1570468197953.13,74.14,0,0,0,0,0
1570468197968.75,79.34,0,0,0,0,0
1570468197984.38,85.71,0,0,0,0,0
1570468198000,93.76,0,0,0,0,0
1570468198015.63,103,0,0,0,0,0
1570468198031.25,112.62,0,0,0,0,0
1570468198046.88,121.73,0,0,0,0,0
1570468198062.5,129.77,0,0,0,0,0
1570468198078.13,136.75,0,0,0,0,0
1570468198093.75,143.3,0,0,0,0,0
1570468198109.38,150.75,0,0,0,0,0
1570468198125,157.77,0,0,0,0,0
1570468198140.63,166.64,0,0,0,0,0
1570468198156.25,177.95,0,0,0,0,0
1570468198171.88,191.79,0,0,0,0,0
1570468198187.5,206.97,0,0,0,0,0
1570468198203.13,220.57,0,0,0,0,0
1570468198218.75,228.25,0,0,0,0,0
1570468198234.38,225.36,0,0,0,0,0
1570468198250,208.53,0,0,0,0,0
1570468198265.63,176.87,0,0,0,0,0
1570468198281.25,132.76,0,0,0,0,0
1570468198296.88,80.05,0,0,0,0,0
1570468198312.5,23.07,0,0,0,0,0
1570468198328.13,-34.94,0,0,0,0,0
1570468198343.75,-92.44,0,0,0,0,0
1570468198359.38,-149.16,0,0,0,0,0
1570468198375,-205.23,0,0,0,0,0
1570468198390.63,-260.37,0,0,0,0,0
1570468198406.25,-313.74,0,0,0,0,0
1570468198421.88,-363.86,0,0,0,0,0
1570468198437.5,-409.81,0,0,0,0,0
1570468198453.13,-450.88,0,0,0,0,0
1570468198468.75,-486.49,0,0,0,0,0
1570468198484.38,-515.77,0,0,0,0,0
1570468198500,-537.32,0,0,0,0,0
1570468198515.63,-549.39,0,0,0,0,0
1570468198531.25,-550.21,0,0,0,0,0
1570468198546.88,-538.68,0,0,0,0,0
1570468198562.5,-514.55,0,0,0,0,0
1570468198578.13,-479.02,0,0,0,0,0
1570468198593.75,-434.21,0,0,0,0,0
1570468198609.38,-382.74,0,0,0,0,0
1570468198625,-327.3,0,0,0,0,0
1570468198640.63,-270.13,0,0,0,0,0
1570468198656.25,-212.98,0,0,0,0,0
1570468198671.88,-157.1,0,0,0,0,0
1570468198687.5,-103.5,0,0,0,0,0
1570468198703.13,-53,0,0,0,0,0
1570468198718.75,-6.58,0,0,0,0,0
1570468198734.38,34.89,0,0,0,0,0
1570468198750,70.74,0,0,0,0,0
1570468198765.63,100.63,0,0,0,0,0
1570468198781.25,124.7,0,0,0,0,0
1570468198796.88,143.42,0,0,0,0,0
1570468198812.5,157.54,0,0,0,0,0
1570468198828.13,167.81,0,0,0,0,0
1570468198843.75,174.91,0,0,0,0,0
1570468198859.38,179.25,0,0,0,0,0
1570468198875,181.09,0,0,0,0,0
1570468198890.63,180.6,0,0,0,0,0
1570468198906.25,177.94,0,0,0,0,0
1570468198921.88,173.4,0,0,0,0,0
1570468198937.5,167.38,0,0,0,0,0
1570468198953.13,160.37,0,0,0,0,0
1570468198968.75,152.82,0,0,0,0,0
1570468198984.38,145.14,0,0,0,0,0
1570468199000,137.51,0,0,0,0,0
1570468199015.63,129.96,0,0,0,0,0
1570468199031.25,122.38,0,0,0,0,0
1570468199046.88,114.59,0,0,0,0,0
1570468199062.5,106.49,0,0,0,0,0
1570468199078.13,98.1,0,0,0,0,0
1570468199093.75,89.61,0,0,0,0,0
1570468199109.38,81.33,0,0,0,0,0
1570468199125,73.58,0,0,0,0,0
1570468199140.63,66.59,0,0,0,0,0
1570468199156.25,60.33,0,0,0,0,0
1570468199171.88,54.59,0,0,0,0,0
1570468199187.5,48.96,0,0,0,0,0
1570468199203.13,43.09,0,0,0,0,0
1570468199218.75,36.79,0,0,0,0,0
1570468199234.38,30.17,0,0,0,0,0
1570468199250,23.6,0,0,0,0,0
1570468199265.63,17.61,0,0,0,0,0
1570468199281.25,12.68,0,0,0,0,0
1570468199296.88,9,0,0,0,0,0
1570468199312.5,6.42,0,0,0,0,0
1570468199328.13,4.32,0,0,0,0,0
1570468199343.75,1.8,0,0,0,0,0
1570468199359.38,-2.02,0,0,0,0,0
1570468199375,-7.53,0,0,0,0,0
1570468199390.63,-14.18,0,0,0,0,0
1570468199406.25,-20.38,0,0,0,0,0
1570468199421.88,-23.95,0,0,0,0,0
1570468199437.5,-22.97,0,0,0,0,0
1570468199453.13,-16.69,0,0,0,0,0
1570468199468.75,-5.91,0,0,0,0,0
1570468199484.38,7.24,0,0,0,0,0
1570468199500,19.94,0,0,0,0,0
1570468199515.63,29.53,0,0,0,0,0
1570468199531.25,34.16,0,0,0,0,0
1570468199546.88,33.14,0,0,0,0,0
1570468199562.5,27.04,0,0,0,0,0
1570468199578.13,17.65,0,0,0,0,0
1570468199593.75,7.6,0,0,0,0,0
1570468199609.38,-0.23,0,0,0,0,0
1570468199625,-3.54,0,0,0,0,0
1570468199640.63,-1.53,0,0,0,0,0
1570468199656.25,4.84,0,0,0,0,0
1570468199671.88,13.21,0,0,0,0,0
1570468199687.5,20.83,0,0,0,0,0
1570468199703.13,25.62,0,0,0,0,0
1570468199718.75,26.92,0,0,0,0,0
1570468199734.38,25.43,0,0,0,0,0
1570468199750,22.6,0,0,0,0,0
1570468199765.63,19.86,0,0,0,0,0
1570468199781.25,18.07,0,0,0,0,0
1570468199796.88,17.35,0,0,0,0,0
1570468199812.5,17.27,0,0,0,0,0
1570468199828.13,17.21,0,0,0,0,0
1570468199843.75,16.63,0,0,0,0,0
1570468199859.38,15.38,0,0,0,0,0
1570468199875,13.59,0,0,0,0,0
1570468199890.63,11.55,0,0,0,0,0
1570468199906.25,9.51,0,0,0,0,0
1570468199921.88,7.51,0,0,0,0,0
1570468199937.5,5.53,0,0,0,0,0
1570468199953.13,3.57,0,0,0,0,0
1570468199968.75,1.9,0,0,0,0,0
1570468199984.38,0.96,0,0,0,0,0
1570468200000,1.08,0,0,0,0,0
1570468200015.63,2.21,0,0,0,0,0
1570468200031.25,3.78,0,0,0,0,0
1570468200046.88,4.9,0,0,0,0,0
1570468200062.5,4.72,0,0,0,0,0
1570468200078.13,2.92,0,0,0,0,0
1570468200093.75,-0.17,0,0,0,0,0
1570468200109.38,-3.6,0,0,0,0,0
1570468200125,-6.13,0,0,0,0,0
1570468200140.63,-6.68,0,0,0,0,0
1570468200156.25,-4.73,0,0,0,0,0
1570468200171.88,-0.5,0,0,0,0,0
1570468200187.5,5.16,0,0,0,0,0
1570468200203.13,11,0,0,0,0,0
1570468200218.75,15.84,0,0,0,0,0
1570468200234.38,18.84,0,0,0,0,0
1570468200250,19.75,0,0,0,0,0
1570468200265.63,18.81,0,0,0,0,0
1570468200281.25,16.56,0,0,0,0,0
1570468200296.88,13.58,0,0,0,0,0
1570468200312.5,10.35,0,0,0,0,0
1570468200328.13,7.2,0,0,0,0,0
1570468200343.75,4.39,0,0,0,0,0
1570468200359.38,2.1,0,0,0,0,0
1570468200375,0.48,0,0,0,0,0
1570468200390.63,-0.43,0,0,0,0,0
1570468200406.25,-0.67,0,0,0,0,0
1570468200421.88,-0.41,0,0,0,0,0
1570468200437.5,0.13,0,0,0,0,0
1570468200453.13,0.74,0,0,0,0,0
1570468200468.75,1.31,0,0,0,0,0
1570468200484.38,1.85,0,0,0,0,0
1570468200500,2.46,0,0,0,0,0
1570468200515.63,3.24,0,0,0,0,0
1570468200531.25,4.27,0,0,0,0,0
1570468200546.88,5.49,0,0,0,0,0
1570468200562.5,6.73,0,0,0,0,0
1570468200578.13,7.71,0,0,0,0,0
1570468200593.75,8.19,0,0,0,0,0
1570468200609.38,7.99,0,0,0,0,0
1570468200625,7.18,0,0,0,0,0
1570468200640.63,6.05,0,0,0,0,0
1570468200656.25,5.11,0,0,0,0,0
1570468200671.88,4.94,0,0,0,0,0
1570468200687.5,5.91,0,0,0,0,0
1570468200703.13,7.98,0,0,0,0,0
1570468200718.75,10.74,0,0,0,0,0
1570468200734.38,13.26,0,0,0,0,0
1570468200750,14.6,0,0,0,0,0
1570468200765.63,14.14,0,0,0,0,0
1570468200781.25,11.76,0,0,0,0,0
1570468200796.88,7.84,0,0,0,0,0
1570468200812.5,3.05,0,0,0,0,0
1570468200828.13,-1.92,0,0,0,0,0
1570468200843.75,-6.56,0,0,0,0,0
1570468200859.38,-10.61,0,0,0,0,0
1570468200875,-13.92,0,0,0,0,0
1570468200890.63,-16.36,0,0,0,0,0
1570468200906.25,-17.77,0,0,0,0,0
1570468200921.88,-18.05,0,0,0,0,0
1570468200937.5,-17.26,0,0,0,0,0
1570468200953.13,-15.72,0,0,0,0,0
1570468200968.75,-13.91,0,0,0,0,0
1570468200984.38,-12.31,0,0,0,0,0
1570468201000,-11.24,0,0,0,0,0
1570468201015.63,-10.69,0,0,0,0,0
1570468201031.25,-10.42,0,0,0,0,0
1570468201046.88,-10.06,0,0,0,0,0
1570468201062.5,-9.31,0,0,0,0,0
1570468201078.13,-8.08,0,0,0,0,0
1570468201093.75,-6.52,0,0,0,0,0
1570468201109.38,-4.94,0,0,0,0,0
1570468201125,-3.7,0,0,0,0,0
1570468201140.63,-3.1,0,0,0,0,0
1570468201156.25,-3.21,0,0,0,0,0
1570468201171.88,-3.89,0,0,0,0,0
1570468201187.5,-4.64,0,0,0,0,0
1570468201203.13,-4.72,0,0,0,0,0
1570468201218.75,-3.32,0,0,0,0,0
1570468201234.38,0.23,0,0,0,0,0
1570468201250,5.98,0,0,0,0,0
1570468201265.63,13.27,0,0,0,0,0
1570468201281.25,20.76,0,0,0,0,0
1570468201296.88,26.89,0,0,0,0,0
1570468201312.5,30.37,0,0,0,0,0
1570468201328.13,30.76,0,0,0,0,0
1570468201343.75,28.5,0,0,0,0,0
1570468201359.38,24.63,0,0,0,0,0
1570468201375,20.3,0,0,0,0,0
1570468201390.63,16.31,0,0,0,0,0
1570468201406.25,13.01,0,0,0,0,0
1570468201421.88,10.38,0,0,0,0,0
1570468201437.5,8.29,0,0,0,0,0
1570468201453.13,6.6,0,0,0,0,0
1570468201468.75,5.23,0,0,0,0,0
1570468201484.38,4.07,0,0,0,0,0
1570468201500,2.91,0,0,0,0,0
1570468201515.63,1.49,0,0,0,0,0
1570468201531.25,-0.32,0,0,0,0,0
1570468201546.88,-2.38,0,0,0,0,0
1570468201562.5,-4.19,0,0,0,0,0
1570468201578.13,-5.02,0,0,0,0,0
1570468201593.75,-4.45,0,0,0,0,0
1570468201609.38,-2.47,0,0,0,0,0
1570468201625,0.4,0,0,0,0,0
1570468201640.63,3.18,0,0,0,0,0
1570468201656.25,4.8,0,0,0,0,0
1570468201671.88,4.45,0,0,0,0,0
1570468201687.5,1.87,0,0,0,0,0
1570468201703.13,-2.81,0,0,0,0,0
1570468201718.75,-8.26,0,0,0,0,0
1570468201734.38,-13.4,0,0,0,0,0
1570468201750,-17.44,0,0,0,0,0
1570468201765.63,-19.89,0,0,0,0,0
1570468201781.25,-20.44,0,0,0,0,0
1570468201796.88,-18.82,0,0,0,0,0
1570468201812.5,-14.85,0,0,0,0,0
1570468201828.13,-8.61,0,0,0,0,0
1570468201843.75,-0.69,0,0,0,0,0
1570468201859.38,7.8,0,0,0,0,0
1570468201875,15.32,0,0,0,0,0
1570468201890.63,20.55,0,0,0,0,0
1570468201906.25,22.79,0,0,0,0,0
1570468201921.88,22.15,0,0,0,0,0
1570468201937.5,19.36,0,0,0,0,0
1570468201953.13,15.39,0,0,0,0,0
1570468201968.75,10.99,0,0,0,0,0
1570468201984.38,6.54,0,0,0,0,0
1570468202000,2.12,0,0,0,0,0
1570468202015.63,-2.4,0,0,0,0,0
1570468202031.25,-7.03,0,0,0,0,0
1570468202046.88,-11.66,0,0,0,0,0
1570468202062.5,-16.16,0,0,0,0,0
1570468202078.13,-20.52,0,0,0,0,0
1570468202093.75,-24.95,0,0,0,0,0
1570468202109.38,-29.74,0,0,0,0,0
1570468202125,-35.02,0,0,0,0,0
1570468202140.63,-40.47,0,0,0,0,0
1570468202156.25,-45.42,0,0,0,0,0
1570468202171.88,-49.01,0,0,0,0,0
1570468202187.5,-50.62,0,0,0,0,0
1570468202203.13,-50.24,0,0,0,0,0
1570468202218.75,-48.67,0,0,0,0,0
1570468202234.38,-47.22,0,0,0,0,0
1570468202250,-47.24,0,0,0,0,0
1570468202265.63,-49.56,0,0,0,0,0
1570468202281.25,-54.04,0,0,0,0,0
1570468202296.88,-59.58,0,0,0,0,0
1570468202312.5,-64.44,0,0,0,0,0
1570468202328.13,-66.8,0,0,0,0,0
1570468202343.75,-65.34,0,0,0,0,0
1570468202359.38,-59.69,0,0,0,0,0
1570468202375,-50.39,0,0,0,0,0
1570468202390.63,-38.68,0,0,0,0,0
1570468202406.25,-26.04,0,0,0,0,0
1570468202421.88,-13.77,0,0,0,0,0
1570468202437.5,-2.8,0,0,0,0,0
1570468202453.13,6.4,0,0,0,0,0
1570468202468.75,13.68,0,0,0,0,0
1570468202484.38,19.08,0,0,0,0,0
1570468202500,22.75,0,0,0,0,0
1570468202515.63,24.99,0,0,0,0,0
1570468202531.25,26.23,0,0,0,0,0
1570468202546.88,26.94,0,0,0,0,0
1570468202562.5,27.6,0,0,0,0,0
1570468202578.13,28.58,0,0,0,0,0
1570468202593.75,30.17,0,0,0,0,0
1570468202609.38,32.58,0,0,0,0,0
1570468202625,35.92,0,0,0,0,0
1570468202640.63,40.15,0,0,0,0,0
1570468202656.25,44.93,0,0,0,0,0
1570468202671.88,49.54,0,0,0,0,0
1570468202687.5,53.05,0,0,0,0,0
1570468202703.13,54.49,0,0,0,0,0
1570468202718.75,53.21,0,0,0,0,0
1570468202734.38,49.07,0,0,0,0,0
1570468202750,42.48,0,0,0,0,0
1570468202765.63,34.21,0,0,0,0,0
1570468202781.25,25.16,0,0,0,0,0
1570468202796.88,16.12,0,0,0,0,0
1570468202812.5,7.78,0,0,0,0,0
1570468202828.13,0.8,0,0,0,0,0
1570468202843.75,-4.11,0,0,0,0,0
1570468202859.38,-6.26,0,0,0,0,0
1570468202875,-5.28,0,0,0,0,0
1570468202890.63,-1.35,0,0,0,0,0
1570468202906.25,4.61,0,0,0,0,0
1570468202921.88,11.22,0,0,0,0,0
1570468202937.5,17.05,0,0,0,0,0
1570468202953.13,21.04,0,0,0,0,0
1570468202968.75,22.83,0,0,0,0,0
1570468202984.38,22.67,0,0,0,0,0
1570468203000,21.13,0,0,0,0,0
1570468203015.63,18.69,0,0,0,0,0
1570468203031.25,15.54,0,0,0,0,0
1570468203046.88,11.62,0,0,0,0,0
1570468203062.5,6.82,0,0,0,0,0
1570468203078.13,1.22,0,0,0,0,0
1570468203093.75,-4.78,0,0,0,0,0
1570468203109.38,-10.54,0,0,0,0,0
1570468203125,-15.47,0,0,0,0,0
1570468203140.63,-19.18,0,0,0,0,0
1570468203156.25,-21.65,0,0,0,0,0
1570468203171.88,-23.18,0,0,0,0,0
1570468203187.5,-24.25,0,0,0,0,0
1570468203203.13,-25.29,0,0,0,0,0
1570468203218.75,-26.49,0,0,0,0,0
1570468203234.38,-27.7,0,0,0,0,0
1570468203250,-28.52,0,0,0,0,0
1570468203265.63,-28.47,0,0,0,0,0
1570468203281.25,-27.18,0,0,0,0,0
1570468203296.88,-24.57,0,0,0,0,0
1570468203312.5,-20.86,0,0,0,0,0
1570468203328.13,-16.55,0,0,0,0,0
1570468203343.75,-12.29,0,0,0,0,0
1570468203359.38,-8.62,0,0,0,0,0
1570468203375,-5.85,0,0,0,0,0
1570468203390.63,-3.87,0,0,0,0,0
1570468203406.25,-2.13,0,0,0,0,0
1570468203421.88,0.18,0,0,0,0,0
1570468203437.5,3.87,0,0,0,0,0
1570468203453.13,9.4,0,0,0,0,0
1570468203468.75,16.76,0,0,0,0,0
1570468203484.38,25.4,0,0,0,0,0
1570468203500,34.46,0,0,0,0,0
1570468203515.63,42.99,0,0,0,0,0
1570468203531.25,50.19,0,0,0,0,0
1570468203546.88,55.48,0,0,0,0,0
1570468203562.5,58.59,0,0,0,0,0
1570468203578.13,59.53,0,0,0,0,0
1570468203593.75,58.55,0,0,0,0,0
1570468203609.38,56.14,0,0,0,0,0
1570468203625,52.89,0,0,0,0,0
1570468203640.63,49.32,0,0,0,0,0
1570468203656.25,45.72,0,0,0,0,0
1570468203671.88,42.1,0,0,0,0,0
1570468203687.5,38.16,0,0,0,0,0
1570468203703.13,33.49,0,0,0,0,0
1570468203718.75,27.73,0,0,0,0,0
1570468203734.38,20.73,0,0,0,0,0
1570468203750,12.68,0,0,0,0,0
1570468203765.63,4.05,0,0,0,0,0
1570468203781.25,-4.51,0,0,0,0,0
1570468203796.88,-12.34,0,0,0,0,0
1570468203812.5,-18.95,0,0,0,0,0
1570468203828.13,-24.2,0,0,0,0,0
1570468203843.75,-28.32,0,0,0,0,0
1570468203859.38,-31.82,0,0,0,0,0
1570468203875,-35.3,0,0,0,0,0
1570468203890.63,-39.2,0,0,0,0,0
1570468203906.25,-43.55,0,0,0,0,0
1570468203921.88,-47.94,0,0,0,0,0
1570468203937.5,-51.62,0,0,0,0,0
1570468203953.13,-53.65,0,0,0,0,0
1570468203968.75,-53.2,0,0,0,0,0
1570468203984.38,-49.84,0,0,0,0,0
1570468204000,-43.68,0,0,0,0,0
1570468204015.63,-35.35,0,0,0,0,0
1570468204031.25,-25.91,0,0,0,0,0
1570468204046.88,-16.58,0,0,0,0,0
1570468204062.5,-8.47,0,0,0,0,0
1570468204078.13,-2.4,0,0,0,0,0
1570468204093.75,1.23,0,0,0,0,0
1570468204109.38,2.47,0,0,0,0,0
1570468204125,1.74,0,0,0,0,0
1570468204140.63,-0.27,0,0,0,0,0
1570468204156.25,-2.81,0,0,0,0,0
1570468204171.88,-5.23,0,0,0,0,0
1570468204187.5,-7.08,0,0,0,0,0
1570468204203.13,-8.19,0,0,0,0,0
1570468204218.75,-8.67,0,0,0,0,0
1570468204234.38,-8.76,0,0,0,0,0
1570468204250,-8.76,0,0,0,0,0
1570468204265.63,-8.88,0,0,0,0,0
1570468204281.25,-9.18,0,0,0,0,0
1570468204296.88,-9.58,0,0,0,0,0
1570468204312.5,-9.98,0,0,0,0,0
1570468204328.13,-10.37,0,0,0,0,0
1570468204343.75,-10.78,0,0,0,0,0
1570468204359.38,-11.38,0,0,0,0,0
1570468204375,-12.36,0,0,0,0,0
1570468204390.63,-13.92,0,0,0,0,0
1570468204406.25,-16.18,0,0,0,0,0
1570468204421.88,-19.13,0,0,0,0,0
1570468204437.5,-22.55,0,0,0,0,0
1570468204453.13,-25.9,0,0,0,0,0
1570468204468.75,-28.39,0,0,0,0,0
1570468204484.38,-29.08,0,0,0,0,0
1570468204500,-27.2,0,0,0,0,0
1570468204515.63,-22.39,0,0,0,0,0
1570468204531.25,-14.93,0,0,0,0,0
1570468204546.88,-5.59,0,0,0,0,0
1570468204562.5,4.58,0,0,0,0,0
1570468204578.13,14.59,0,0,0,0,0
1570468204593.75,23.72,0,0,0,0,0
1570468204609.38,31.44,0,0,0,0,0
1570468204625,37.34,0,0,0,0,0
1570468204640.63,40.99,0,0,0,0,0
1570468204656.25,42.08,0,0,0,0,0
1570468204671.88,40.55,0,0,0,0,0
1570468204687.5,36.77,0,0,0,0,0
1570468204703.13,31.58,0,0,0,0,0
1570468204718.75,25.99,0,0,0,0,0
1570468204734.38,20.84,0,0,0,0,0
1570468204750,16.52,0,0,0,0,0
1570468204765.63,12.86,0,0,0,0,0
1570468204781.25,9.36,0,0,0,0,0
1570468204796.88,5.48,0,0,0,0,0
1570468204812.5,0.97,0,0,0,0,0
1570468204828.13,-4.03,0,0,0,0,0
1570468204843.75,-9.09,0,0,0,0,0
1570468204859.38,-13.72,0,0,0,0,0
1570468204875,-17.62,0,0,0,0,0
1570468204890.63,-20.78,0,0,0,0,0
1570468204906.25,-23.42,0,0,0,0,0
1570468204921.88,-25.91,0,0,0,0,0
1570468204937.5,-28.58,0,0,0,0,0
1570468204953.13,-31.62,0,0,0,0,0
1570468204968.75,-34.9,0,0,0,0,0
1570468204984.38,-38.02,0,0,0,0,0
1570468205000,-40.4,0,0,0,0,0
1570468205015.63,-41.46,0,0,0,0,0
1570468205031.25,-40.89,0,0,0,0,0
1570468205046.88,-38.75,0,0,0,0,0
1570468205062.5,-35.54,0,0,0,0,0
1570468205078.13,-32,0,0,0,0,0
1570468205093.75,-28.87,0,0,0,0,0
1570468205109.38,-26.68,0,0,0,0,0
1570468205125,-25.64,0,0,0,0,0
1570468205140.63,-25.64,0,0,0,0,0
1570468205156.25,-26.45,0,0,0,0,0
1570468205171.88,-27.79,0,0,0,0,0
1570468205187.5,-29.48,0,0,0,0,0
1570468205203.13,-31.49,0,0,0,0,0
1570468205218.75,-33.94,0,0,0,0,0
1570468205234.38,-37,0,0,0,0,0
1570468205250,-40.73,0,0,0,0,0
1570468205265.63,-44.85,0,0,0,0,0
1570468205281.25,-48.59,0,0,0,0,0
1570468205296.88,-50.83,0,0,0,0,0
1570468205312.5,-50.36,0,0,0,0,0
1570468205328.13,-46.45,0,0,0,0,0
1570468205343.75,-39.2,0,0,0,0,0
1570468205359.38,-29.6,0,0,0,0,0
1570468205375,-19.25,0,0,0,0,0
1570468205390.63,-9.82,0,0,0,0,0
1570468205406.25,-2.51,0,0,0,0,0
1570468205421.88,2.13,0,0,0,0,0
1570468205437.5,4.06,0,0,0,0,0
1570468205453.13,3.31,0,0,0,0,0
1570468205468.75,-0.26,0,0,0,0,0
1570468205484.38,-6.84,0,0,0,0,0
1570468205500,-16.3,0,0,0,0,0
1570468205515.63,-27.75,0,0,0,0,0
1570468205531.25,-39.4,0,0,0,0,0
1570468205546.88,-48.91,0,0,0,0,0
1570468205562.5,-54.14,0,0,0,0,0
1570468205578.13,-53.86,0,0,0,0,0
1570468205593.75,-48.1,0,0,0,0,0
1570468205609.38,-38.09,0,0,0,0,0
1570468205625,-25.7,0,0,0,0,0
1570468205640.63,-12.85,0,0,0,0,0
1570468205656.25,-1.05,0,0,0,0,0
1570468205671.88,8.77,0,0,0,0,0
1570468205687.5,16.16,0,0,0,0,0
1570468205703.13,21.02,0,0,0,0,0
1570468205718.75,23.48,0,0,0,0,0
1570468205734.38,23.84,0,0,0,0,0
1570468205750,22.54,0,0,0,0,0
1570468205765.63,20.2,0,0,0,0,0
1570468205781.25,17.48,0,0,0,0,0
1570468205796.88,15,0,0,0,0,0
1570468205812.5,13.21,0,0,0,0,0
1570468205828.13,12.3,0,0,0,0,0
1570468205843.75,12.16,0,0,0,0,0
1570468205859.38,12.54,0,0,0,0,0
1570468205875,13.2,0,0,0,0,0
1570468205890.63,14.13,0,0,0,0,0
1570468205906.25,15.59,0,0,0,0,0
1570468205921.88,17.98,0,0,0,0,0
1570468205937.5,21.56,0,0,0,0,0
1570468205953.13,26.3,0,0,0,0,0
1570468205968.75,31.79,0,0,0,0,0
1570468205984.38,37.39,0,0,0,0,0
1570468206000,42.5,0,0,0,0,0
1570468206015.63,46.67,0,0,0,0,0
1570468206031.25,49.69,0,0,0,0,0
1570468206046.88,51.55,0,0,0,0,0
1570468206062.5,52.42,0,0,0,0,0
1570468206078.13,52.58,0,0,0,0,0
1570468206093.75,52.52,0,0,0,0,0
1570468206109.38,52.84,0,0,0,0,0
1570468206125,54.15,0,0,0,0,0
1570468206140.63,56.92,0,0,0,0,0
1570468206156.25,61.26,0,0,0,0,0
1570468206171.88,66.87,0,0,0,0,0
1570468206187.5,72.99,0,0,0,0,0
1570468206203.13,78.6,0,0,0,0,0
1570468206218.75,82.61,0,0,0,0,0
1570468206234.38,84.13,0,0,0,0,0
1570468206250,82.75,0,0,0,0,0
1570468206265.63,78.69,0,0,0,0,0
1570468206281.25,72.74,0,0,0,0,0
1570468206296.88,66.06,0,0,0,0,0
1570468206312.5,59.78,0,0,0,0,0
1570468206328.13,54.67,0,0,0,0,0
1570468206343.75,50.91,0,0,0,0,0
1570468206359.38,48.16,0,0,0,0,0
1570468206375,45.78,0,0,0,0,0
1570468206390.63,43.08,0,0,0,0,0
1570468206406.25,39.51,0,0,0,0,0
1570468206421.88,34.84,0,0,0,0,0
1570468206437.5,29.38,0,0,0,0,0
1570468206453.13,24.26,0,0,0,0,0
1570468206468.75,21.5,0,0,0,0,0
1570468206484.38,23.53,0,0,0,0,0
1570468206500,32.21,0,0,0,0,0
1570468206515.63,47.6,0,0,0,0,0
1570468206531.25,67.2,0,0,0,0,0
1570468206546.88,86.33,0,0,0,0,0
1570468206562.5,99.65,0,0,0,0,0
1570468206578.13,103.21,0,0,0,0,0
1570468206593.75,96.08,0,0,0,0,0
1570468206609.38,80.62,0,0,0,0,0
1570468206625,61.24,0,0,0,0,0
1570468206640.63,42.46,0,0,0,0,0
1570468206656.25,27.21,0,0,0,0,0
1570468206671.88,16.28,0,0,0,0,0
1570468206687.5,8.85,0,0,0,0,0
1570468206703.13,3.74,0,0,0,0,0
1570468206718.75,0.23,0,0,0,0,0
1570468206734.38,-1.72,0,0,0,0,0
1570468206750,-1.94,0,0,0,0,0
1570468206765.63,-0.62,0,0,0,0,0
1570468206781.25,1.4,0,0,0,0,0
1570468206796.88,2.96,0,0,0,0,0
1570468206812.5,2.98,0,0,0,0,0
1570468206828.13,0.94,0,0,0,0,0
1570468206843.75,-2.99,0,0,0,0,0
1570468206859.38,-8.1,0,0,0,0,0
1570468206875,-13.51,0,0,0,0,0
1570468206890.63,-18.46,0,0,0,0,0
1570468206906.25,-22.52,0,0,0,0,0
1570468206921.88,-25.67,0,0,0,0,0
1570468206937.5,-28.17,1,0,0,0,0
1570468206953.13,-30.33,1,0,0,0,0
1570468206968.75,-32.38,1,0,0,0,0
1570468206984.38,-34.43,1,0,0,0,0
1570468207000,-36.62,1,0,0,0,0
1570468207015.63,-39.25,1,0,0,0,0
1570468207031.25,-42.85,1,0,0,0,0
1570468207046.88,-47.76,1,0,0,0,0
1570468207062.5,-53.66,1,0,0,0,0
1570468207078.13,-59.31,1,0,0,0,0
1570468207093.75,-62.93,1,0,0,0,0
1570468207109.38,-62.96,1,0,0,0,0
1570468207125,-58.9,1,0,0,0,0
1570468207140.63,-51.47,1,0,0,0,0
1570468207156.25,-42.08,1,0,0,0,0
1570468207171.88,-31.86,1,0,0,0,0
1570468207187.5,-21.17,1,0,0,0,0
1570468207203.13,-9.83,1,0,0,0,0
1570468207218.75,2.05,1,0,0,0,0
1570468207234.38,13.3,1,0,0,0,0
1570468207250,21.63,1,0,0,0,0
1570468207265.63,24.65,1,0,0,0,0
1570468207281.25,21.07,1,0,0,0,0
1570468207296.88,11.63,1,0,0,0,0
1570468207312.5,-1.15,1,0,0,0,0
1570468207328.13,-14.06,1,0,0,0,0
1570468207343.75,-24.56,1,0,0,0,0
1570468207359.38,-31.59,1,0,0,0,0
1570468207375,-35.51,1,0,0,0,0
1570468207390.63,-37.37,1,0,0,0,0
1570468207406.25,-38.08,1,0,0,0,0
1570468207421.88,-37.97,1,0,0,0,0
1570468207437.5,-36.86,1,0,0,0,0
1570468207453.13,-34.47,1,0,0,0,0
1570468207468.75,-30.79,1,0,0,0,0
1570468207484.38,-26.33,1,0,0,0,0
1570468207500,-21.99,1,0,0,0,0
1570468207515.63,-18.72,1,0,0,0,0
1570468207531.25,-17.09,1,0,0,0,0
1570468207546.88,-17.09,1,0,0,0,0
1570468207562.5,-18.14,1,0,0,0,0
1570468207578.13,-19.42,1,0,0,0,0
1570468207593.75,-20.21,1,0,0,0,0
1570468207609.38,-20.2,1,0,0,0,0
1570468207625,-19.41,0,0,0,0,0
1570468207640.63,-18.09,0,0,0,0,0
1570468207656.25,-16.35,0,0,0,0,0
1570468207671.88,-14.04,0,0,0,0,0
1570468207687.5,-10.73,0,0,0,0,0
1570468207703.13,-6.03,0,0,0,0,0
1570468207718.75,0.18,0,0,0,0,0
1570468207734.38,7.57,0,0,0,0,0
1570468207750,15.35,0,0,0,0,0
1570468207765.63,22.56,0,0,0,0,0
1570468207781.25,28.28,0,0,0,0,0
1570468207796.88,31.94,0,0,0,0,0
1570468207812.5,33.35,0,0,0,0,0
1570468207828.13,32.6,0,0,0,0,0
1570468207843.75,29.9,0,0,0,0,0
1570468207859.38,25.54,0,0,0,0,0
1570468207875,19.84,0,0,0,0,0
1570468207890.63,13.25,0,0,0,0,0
1570468207906.25,6.45,0,0,0,0,0
1570468207921.88,0.27,0,0,0,0,0
1570468207937.5,-4.35,0,0,0,0,0
1570468207953.13,-6.72,0,0,0,0,0
1570468207968.75,-6.56,0,0,0,0,0
1570468207984.38,-4.21,0,0,0,0,0
1570468208000,-0.53,0,0,0,0,0
1570468208015.63,3.26,0,0,0,0,0
1570468208031.25,6,0,0,0,0,0
1570468208046.88,6.93,0,0,0,0,0
1570468208062.5,5.81,0,0,0,0,0
1570468208078.13,3.02,0,0,0,0,0
1570468208093.75,-0.76,0,0,0,0,0
1570468208109.38,-4.81,0,0,0,0,0
1570468208125,-8.68,0,0,0,0,0
1570468208140.63,-12.31,0,0,0,0,0
1570468208156.25,-15.95,0,0,0,0,0
1570468208171.88,-19.89,0,0,0,0,0
1570468208187.5,-24.13,0,0,0,0,0
1570468208203.13,-28.23,0,0,0,0,0
1570468208218.75,-31.29,0,0,0,0,0
1570468208234.38,-32.25,0,0,0,0,0
1570468208250,-30.33,0,0,0,0,0
1570468208265.63,-25.39,0,0,0,0,0
1570468208281.25,-18,0,0,0,0,0
1570468208296.88,-9.38,0,0,0,0,0
1570468208312.5,-0.9,0,0,0,0,0
1570468208328.13,6.37,0,0,0,0,0
1570468208343.75,11.94,0,0,0,0,0
1570468208359.38,16.05,0,0,0,0,0
1570468208375,19.51,0,0,0,0,0
1570468208390.63,23.56,0,0,0,0,0
1570468208406.25,29.51,0,0,0,0,0
1570468208421.88,38.33,0,0,0,0,0
1570468208437.5,50.22,0,0,0,0,0
1570468208453.13,64.17,0,0,0,0,0
1570468208468.75,77.92,0,0,0,0,0
1570468208484.38,88.37,0,0,0,0,0
1570468208500,92.5,0,0,0,0,0
1570468208515.63,88.5,0,0,0,0,0
1570468208531.25,76.52,0,0,0,0,0
1570468208546.88,58.78,0,0,0,0,0
1570468208562.5,38.85,0,0,0,0,0
1570468208578.13,20.41,0,0,0,0,0
1570468208593.75,6.12,0,0,0,0,0
1570468208609.38,-3.05,0,0,0,0,0
1570468208625,-7.75,0,0,0,0,0
1570468208640.63,-9.53,0,0,0,0,0
1570468208656.25,-10.11,0,0,0,0,0
1570468208671.88,-10.85,0,0,0,0,0
1570468208687.5,-12.52,0,0,0,0,0
1570468208703.13,-15.47,0,0,0,0,0
1570468208718.75,-19.74,0,0,0,0,0
1570468208734.38,-25.12,0,0,0,0,0
1570468208750,-31.02,0,0,0,0,0
1570468208765.63,-36.49,0,0,0,0,0
1570468208781.25,-40.27,0,0,0,0,0
1570468208796.88,-41.22,0,0,0,0,0
1570468208812.5,-38.74,0,0,0,0,0
1570468208828.13,-33.02,0,0,0,0,0
1570468208843.75,-25.02,0,0,0,0,0
1570468208859.38,-16.12,0,0,0,0,0
1570468208875,-7.66,0,0,0,0,0
1570468208890.63,-0.62,0,0,0,0,0
1570468208906.25,4.53,0,0,0,0,0
1570468208921.88,7.73,0,0,0,0,0
1570468208937.5,9.09,0,0,0,0,0
1570468208953.13,8.77,0,0,0,0,0
1570468208968.75,6.9,0,0,0,0,0
1570468208984.38,3.69,0,0,0,0,0
1570468209000,-0.53,0,0,0,0,0
1570468209015.63,-5.25,0,0,0,0,0
1570468209031.25,-9.81,0,0,0,0,0
1570468209046.88,-13.55,0,0,0,0,0
1570468209062.5,-16.01,0,0,0,0,0
1570468209078.13,-17.02,0,0,0,0,0
1570468209093.75,-16.75,0,0,0,0,0
1570468209109.38,-15.6,0,0,0,0,0
1570468209125,-14.01,0,0,0,0,0
1570468209140.63,-12.3,0,0,0,0,0
1570468209156.25,-10.67,0,0,0,0,0
1570468209171.88,-9.2,0,0,0,0,0
1570468209187.5,-8.06,0,0,0,0,0
1570468209203.13,-7.59,0,0,0,0,0
1570468209218.75,-8.23,0,0,0,0,0
1570468209234.38,-10.36,0,0,0,0,0
1570468209250,-14.01,0,0,0,0,0
1570468209265.63,-18.76,0,0,0,0,0
1570468209281.25,-23.69,0,0,0,0,0
1570468209296.88,-27.63,0,0,0,0,0
1570468209312.5,-29.51,0,0,0,0,0
1570468209328.13,-28.61,0,0,0,0,0
1570468209343.75,-24.71,0,0,0,0,0
1570468209359.38,-18.08,0,0,0,0,0
1570468209375,-9.38,0,0,0,0,0
1570468209390.63,0.45,0,0,0,0,0
1570468209406.25,10.18,0,0,0,0,0
1570468209421.88,18.41,0,0,0,0,0
1570468209437.5,23.68,0,0,0,0,0
1570468209453.13,24.78,0,0,0,0,0
1570468209468.75,21.15,0,0,0,0,0
1570468209484.38,13.07,0,0,0,0,0
1570468209500,1.81,0,0,0,0,0
1570468209515.63,-10.76,0,0,0,0,0
1570468209531.25,-22.58,0,0,0,0,0
1570468209546.88,-32.02,0,0,0,0,0
1570468209562.5,-38.19,0,0,0,0,0
1570468209578.13,-40.98,0,0,0,0,0
1570468209593.75,-40.88,0,0,0,0,0
1570468209609.38,-38.66,0,0,0,0,0
1570468209625,-35.09,0,0,0,0,0
1570468209640.63,-30.73,0,0,0,0,0
1570468209656.25,-25.92,0,0,0,0,0
1570468209671.88,-20.82,0,0,0,0,0
1570468209687.5,-15.47,0,0,0,0,0
1570468209703.13,-9.89,0,0,0,0,0
1570468209718.75,-4.16,0,0,0,0,0
1570468209734.38,1.55,0,0,0,0,0
1570468209750,6.88,0,0,0,0,0
1570468209765.63,11.31,0,0,0,0,0
1570468209781.25,14.34,0,0,0,0,0
1570468209796.88,15.68,0,0,0,0,0
1570468209812.5,15.65,0,0,0,0,0
1570468209828.13,15.35,0,0,0,0,0
1570468209843.75,16.38,0,0,0,0,0
1570468209859.38,20.32,0,0,0,0,0
1570468209875,27.98,0,0,0,0,0
1570468209890.63,38.86,0,0,0,0,0
1570468209906.25,51.16,0,0,0,0,0
1570468209921.88,62.34,0,0,0,0,0
1570468209937.5,70.13,0,0,0,0,0
1570468209953.13,73.26,0,0,0,0,0
1570468209968.75,71.83,0,0,0,0,0
1570468209984.38,66.94,0,0,0,0,0
1570468210000,60.04,0,0,0,0,0
1570468210015.63,52.33,0,0,0,0,0
1570468210031.25,44.43,0,0,0,0,0
1570468210046.88,36.56,0,0,0,0,0
1570468210062.5,28.82,0,0,0,0,0
1570468210078.13,21.38,0,0,0,0,0
1570468210093.75,14.45,0,0,0,0,0
1570468210109.38,8.12,0,0,0,0,0
1570468210125,2.24,0,0,0,0,0
1570468210140.63,-3.49,0,0,0,0,0
1570468210156.25,-9.22,0,0,0,0,0
1570468210171.88,-14.66,0,0,0,0,0
1570468210187.5,-19.09,0,0,0,0,0
1570468210203.13,-21.59,0,0,0,0,0
1570468210218.75,-21.54,0,0,0,0,0
1570468210234.38,-19.03,0,0,0,0,0
1570468210250,-14.89,0,0,0,0,0
1570468210265.63,-10.44,0,0,0,0,0
1570468210281.25,-6.97,0,0,0,0,0
1570468210296.88,-5.4,0,0,0,0,0
1570468210312.5,-6.17,0,0,0,0,0
1570468210328.13,-9.38,0,0,0,0,0
1570468210343.75,-14.92,0,0,0,0,0
1570468210359.38,-22.49,0,0,0,0,0
1570468210375,-31.25,0,0,0,0,0
1570468210390.63,-39.69,0,0,0,0,0
1570468210406.25,-45.74,0,0,0,0,0
1570468210421.88,-47.42,0,0,0,0,0
1570468210437.5,-43.7,0,0,0,0,0
1570468210453.13,-35.13,0,0,0,0,0
1570468210468.75,-23.87,0,0,0,0,0
1570468210484.38,-12.9,0,0,0,0,0
1570468210500,-4.93,0,0,0,0,0
1570468210515.63,-1.51,0,0,0,0,0
1570468210531.25,-2.58,0,0,0,0,0
1570468210546.88,-6.96,0,0,0,0,0
1570468210562.5,-13.01,0,0,0,0,0
1570468210578.13,-19.4,0,0,0,0,0
1570468210593.75,-25.37,0,0,0,0,0
1570468210609.38,-30.66,0,0,0,0,0
1570468210625,-35.18,0,0,0,0,0
1570468210640.63,-38.83,0,0,0,0,0
1570468210656.25,-41.54,0,0,0,0,0
1570468210671.88,-43.39,0,0,0,0,0
1570468210687.5,-44.77,0,0,0,0,0
1570468210703.13,-46.29,0,0,0,0,0
1570468210718.75,-48.57,0,0,0,0,0
1570468210734.38,-51.83,0,0,0,0,0
1570468210750,-55.76,0,0,0,0,0
1570468210765.63,-59.47,0,0,0,0,0
1570468210781.25,-61.87,0,0,0,0,0
1570468210796.88,-62.17,0,0,0,0,0
1570468210812.5,-60.25,0,0,0,0,0
1570468210828.13,-56.82,0,0,0,0,0
1570468210843.75,-53.16,0,0,0,0,0
1570468210859.38,-50.53,0,0,0,0,0
1570468210875,-49.52,0,0,0,0,0
1570468210890.63,-49.59,0,0,0,0,0
1570468210906.25,-49.23,0,0,0,0,0
1570468210921.88,-46.54,0,0,0,0,0
1570468210937.5,-40.13,0,0,0,0,0
1570468210953.13,-29.75,0,0,0,0,0
1570468210968.75,-16.49,0,0,0,0,0
1570468210984.38,-2.27,0,0,0,0,0
1570468211000,10.9,0,0,0,0,0
1570468211015.63,21.73,0,0,0,0,0
1570468211031.25,29.89,0,0,0,0,0
1570468211046.88,35.82,0,0,0,0,0
1570468211062.5,40.26,0,0,0,0,0
1570468211078.13,43.68,0,0,0,0,0
1570468211093.75,46.1,0,0,0,0,0
1570468211109.38,47.18,0,0,0,0,0
1570468211125,46.5,0,0,0,0,0
1570468211140.63,43.93,0,0,0,0,0
1570468211156.25,39.73,0,0,0,0,0
1570468211171.88,34.49,0,0,0,0,0
1570468211187.5,29.05,0,0,0,0,0
1570468211203.13,24.2,0,0,0,0,0
1570468211218.75,20.46,0,0,0,0,0
1570468211234.38,17.96,0,0,0,0,0
1570468211250,16.36,0,0,0,0,0
1570468211265.63,15.02,0,0,0,0,0
1570468211281.25,13.21,0,0,0,0,0
1570468211296.88,10.38,0,0,0,0,0
1570468211312.5,6.3,0,0,0,0,0
1570468211328.13,1.02,0,0,0,0,0
1570468211343.75,-5.25,0,0,0,0,0
1570468211359.38,-12.31,0,0,0,0,0
1570468211375,-19.92,0,0,0,0,0
1570468211390.63,-27.63,0,0,0,0,0
1570468211406.25,-34.53,0,0,0,0,0
1570468211421.88,-39.29,0,0,0,0,0
1570468211437.5,-40.46,0,0,0,0,0
1570468211453.13,-37,0,0,0,0,0
1570468211468.75,-28.76,0,0,0,0,0
1570468211484.38,-16.65,0,0,0,0,0
1570468211500,-2.35,0,0,0,0,0
1570468211515.63,12.28,0,0,0,0,0
1570468211531.25,25.73,0,0,0,0,0
1570468211546.88,37.24,0,0,0,0,0
1570468211562.5,46.71,0,0,0,0,0
1570468211578.13,54.47,0,0,0,0,0
1570468211593.75,60.9,0,0,0,0,0
1570468211609.38,66.23,0,0,0,0,0
1570468211625,70.41,0,0,0,0,0
1570468211640.63,73.24,0,0,0,0,0
1570468211656.25,74.55,0,0,0,0,0
1570468211671.88,74.46,0,0,0,0,0
1570468211687.5,73.45,0,0,0,0,0
1570468211703.13,72.33,0,0,0,0,0
1570468211718.75,71.87,0,0,0,0,0
1570468211734.38,72.45,0,0,0,0,0
1570468211750,73.83,0,0,0,0,0
1570468211765.63,75.18,0,0,0,0,0
1570468211781.25,75.52,0,0,0,0,0
1570468211796.88,74.23,0,0,0,0,0
1570468211812.5,71.35,0,0,0,0,0
1570468211828.13,67.54,0,0,0,0,0
1570468211843.75,63.5,0,0,0,0,0
1570468211859.38,59.57,0,0,0,0,0
1570468211875,55.52,0,0,0,0,0
1570468211890.63,51.07,0,0,0,0,0
1570468211906.25,46.34,0,0,0,0,0
1570468211921.88,42.34,0,0,0,0,0
1570468211937.5,40.54,0,0,0,0,0
1570468211953.13,42.13,0,0,0,0,0
1570468211968.75,47.1,0,0,0,0,0
1570468211984.38,53.93,0,0,0,0,0
1570468212000,60.03,0,0,0,0,0
1570468212015.63,62.74,0,0,0,0,0
1570468212031.25,60.39,0,0,0,0,0
1570468212046.88,52.73,0,0,0,0,0
1570468212062.5,40.75,0,0,0,0,0
1570468212078.13,26.04,0,0,0,0,0
1570468212093.75,10.14,0,0,0,0,0
1570468212109.38,-5.73,0,0,0,0,0
1570468212125,-20.68,0,0,0,0,0
1570468212140.63,-33.95,0,0,0,0,0
1570468212156.25,-44.92,0,0,0,0,0
1570468212171.88,-53.24,0,0,0,0,0
1570468212187.5,-58.93,0,0,0,0,0
1570468212203.13,-62.43,0,0,0,0,0
1570468212218.75,-64.38,0,0,0,0,0
1570468212234.38,-65.44,0,0,0,0,0
1570468212250,-66.04,0,0,0,0,0
1570468212265.63,-66.35,0,0,0,0,0
1570468212281.25,-66.35,0,0,0,0,0
1570468212296.88,-65.91,0,0,0,0,0
1570468212312.5,-64.91,0,0,0,0,0
1570468212328.13,-63.35,0,0,0,0,0
1570468212343.75,-61.36,0,0,0,0,0
1570468212359.38,-59.26,0,0,0,0,0
1570468212375,-57.45,0,0,0,0,0
1570468212390.63,-56.22,0,0,0,0,0
1570468212406.25,-55.46,0,0,0,0,0
1570468212421.88,-54.52,0,0,0,0,0
1570468212437.5,-52.38,0,0,0,0,0
1570468212453.13,-47.94,0,0,0,0,0
1570468212468.75,-40.54,0,0,0,0,0
1570468212484.38,-30.36,0,0,0,0,0
1570468212500,-18.42,0,0,0,0,0
1570468212515.63,-6.29,0,0,0,0,0
1570468212531.25,4.5,0,0,0,0,0
1570468212546.88,12.88,0,0,0,0,0
1570468212562.5,18.51,0,0,0,0,0
1570468212578.13,21.6,0,0,0,0,0
1570468212593.75,22.66,0,0,0,0,0
1570468212609.38,22.21,0,0,0,0,0
1570468212625,20.66,0,0,0,0,0
1570468212640.63,18.37,0,0,0,0,0
1570468212656.25,15.7,0,0,0,0,0
1570468212671.88,13.03,0,0,0,0,0
1570468212687.5,10.63,0,0,0,0,0
1570468212703.13,8.64,0,0,0,0,0
1570468212718.75,7.01,0,0,0,0,0
1570468212734.38,5.56,0,0,0,0,0
1570468212750,4.19,0,0,0,0,0
1570468212765.63,2.82,0,0,0,0,0
1570468212781.25,1.41,0,0,0,0,0
1570468212796.88,-0.22,0,0,0,0,0
1570468212812.5,-2.41,0,0,0,0,0
1570468212828.13,-5.55,0,0,0,0,0
1570468212843.75,-9.91,0,0,0,0,0
1570468212859.38,-15.43,0,0,0,0,0
1570468212875,-21.56,0,0,0,0,0
1570468212890.63,-27.35,0,0,0,0,0
1570468212906.25,-31.69,0,0,0,0,0
1570468212921.88,-33.61,0,0,0,0,0
1570468212937.5,-32.56,0,0,0,0,0
1570468212953.13,-28.59,0,0,0,0,0
1570468212968.75,-22.32,0,0,0,0,0
1570468212984.38,-14.75,0,0,0,0,0
1570468213000,-6.98,0,0,0,0,0
1570468213015.63,-0.02,0,0,0,0,0
1570468213031.25,5.47,0,0,0,0,0
1570468213046.88,9.09,0,0,0,0,0
1570468213062.5,10.78,0,0,0,0,0
1570468213078.13,10.59,0,0,0,0,0
1570468213093.75,8.68,0,0,0,0,0
1570468213109.38,5.23,0,0,0,0,0
1570468213125,0.37,0,0,0,0,0
1570468213140.63,-5.79,0,0,0,0,0
1570468213156.25,-13.19,0,0,0,0,0
1570468213171.88,-21.72,0,0,0,0,0
1570468213187.5,-31.15,0,0,0,0,0
1570468213203.13,-41.05,0,0,0,0,0
1570468213218.75,-50.8,0,0,0,0,0
1570468213234.38,-59.78,0,0,0,0,0
1570468213250,-67.42,0,0,0,0,0
1570468213265.63,-73.42,0,0,0,0,0
1570468213281.25,-77.71,0,0,0,0,0
1570468213296.88,-80.47,0,0,0,0,0
1570468213312.5,-81.95,0,0,0,0,0
1570468213328.13,-82.48,0,0,0,0,0
1570468213343.75,-82.27,0,0,0,0,0
1570468213359.38,-81.39,0,0,0,0,0
1570468213375,-79.54,0,0,0,0,0
1570468213390.63,-76.06,0,0,0,0,0
1570468213406.25,-70.08,0,0,0,0,0
1570468213421.88,-60.87,0,0,0,0,0
1570468213437.5,-48.3,0,0,0,0,0
1570468213453.13,-33.12,0,0,0,0,0
1570468213468.75,-16.86,0,0,0,0,0
1570468213484.38,-1.34,0,0,0,0,0
1570468213500,11.96,0,0,0,0,0
1570468213515.63,22.3,0,0,0,0,0
1570468213531.25,29.78,0,0,0,0,0
1570468213546.88,35.01,0,0,0,0,0
1570468213562.5,38.74,0,0,0,0,0
1570468213578.13,41.51,0,0,0,0,0
1570468213593.75,43.7,0,0,0,0,0
1570468213609.38,45.67,0,0,0,0,0
1570468213625,47.87,0,0,0,0,0
1570468213640.63,50.85,0,0,0,0,0
1570468213656.25,55.06,0,0,0,0,0
1570468213671.88,60.52,0,0,0,0,0
1570468213687.5,66.77,0,0,0,0,0
1570468213703.13,72.94,0,0,0,0,0
1570468213718.75,78.04,0,0,0,0,0
1570468213734.38,81.3,0,0,0,0,0
1570468213750,82.41,0,0,0,0,0
1570468213765.63,81.59,0,0,0,0,0
1570468213781.25,79.39,0,0,0,0,0
1570468213796.88,76.42,0,0,0,0,0
1570468213812.5,73.05,0,0,0,0,0
1570468213828.13,69.36,0,0,0,0,0
1570468213843.75,65.26,0,0,0,0,0
1570468213859.38,60.77,0,0,0,0,0
1570468213875,56.21,0,0,0,0,0
1570468213890.63,52.18,0,0,0,0,0
1570468213906.25,49.3,0,0,0,0,0
1570468213921.88,47.8,0,0,0,0,0
1570468213937.5,47.25,0,0,0,0,0
1570468213953.13,46.6,0,0,0,0,0
1570468213968.75,44.53,0,0,0,0,0
1570468213984.38,39.96,0,0,0,0,0
1570468214000,32.52,0,0,0,0,0
1570468214015.63,22.61,0,0,0,0,0
1570468214031.25,11.23,0,0,0,0,0
1570468214046.88,-0.53,0,0,0,0,0
1570468214062.5,-11.88,0,0,0,0,0
1570468214078.13,-22.49,0,0,0,0,0
1570468214093.75,-32.36,0,0,0,0,0
1570468214109.38,-41.54,0,0,0,0,0
1570468214125,-49.88,0,0,0,0,0
1570468214140.63,-56.98,0,0,0,0,0
1570468214156.25,-62.34,0,0,0,0,0
1570468214171.88,-65.6,0,0,0,0,0
1570468214187.5,-66.65,0,0,0,0,0
1570468214203.13,-65.8,0,0,0,0,0
1570468214218.75,-63.63,0,0,0,0,0
1570468214234.38,-61.01,0,0,0,0,0
1570468214250,-58.94,0,0,0,0,0
1570468214265.63,-58.51,0,0,0,0,0
1570468214281.25,-60.71,0,0,0,0,0
1570468214296.88,-66.18,0,0,0,0,0
1570468214312.5,-74.98,0,0,0,0,0
1570468214328.13,-86.35,0,0,0,0,0
1570468214343.75,-98.65,0,0,0,0,0
1570468214359.38,-109.46,0,0,0,0,0
1570468214375,-116.02,0,0,0,0,0
1570468214390.63,-115.88,0,0,0,0,0
1570468214406.25,-107.72,0,0,0,0,0
1570468214421.88,-91.93,0,0,0,0,0
1570468214437.5,-70.68,0,0,0,0,0
1570468214453.13,-47.38,0,0,0,0,0
1570468214468.75,-25.63,0,0,0,0,0
1570468214484.38,-8.21,0,0,0,0,0
1570468214500,3.63,0,0,0,0,0
1570468214515.63,10.08,0,0,0,0,0
1570468214531.25,12.34,0,0,0,0,0
1570468214546.88,11.8,0,0,0,0,0
1570468214562.5,9.68,0,0,0,0,0
1570468214578.13,6.82,0,0,0,0,0
1570468214593.75,3.83,0,0,0,0,0
1570468214609.38,1.2,0,0,0,0,0
1570468214625,-0.66,0,0,0,0,0
1570468214640.63,-1.62,0,0,0,0,0
1570468214656.25,-1.91,0,0,0,0,0
1570468214671.88,-2.13,0,0,0,0,0
1570468214687.5,-2.97,0,0,0,0,0
1570468214703.13,-4.98,0,0,0,0,0
1570468214718.75,-8.34,0,0,0,0,0
1570468214734.38,-12.82,0,0,0,0,0
1570468214750,-17.83,0,0,0,0,0
1570468214765.63,-22.68,0,0,0,0,0
1570468214781.25,-26.82,0,0,0,0,0
1570468214796.88,-30.04,0,0,0,0,0
1570468214812.5,-32.64,0,0,0,0,0
1570468214828.13,-35.25,0,0,0,0,0
1570468214843.75,-38.52,0,0,0,0,0
1570468214859.38,-42.67,0,0,0,0,0
1570468214875,-47.14,0,0,0,0,0
1570468214890.63,-50.59,0,0,0,0,0
1570468214906.25,-51.3,0,0,0,0,0
1570468214921.88,-47.82,0,0,0,0,0
1570468214937.5,-39.56,0,0,0,0,0
1570468214953.13,-27.04,0,0,0,0,0
1570468214968.75,-11.72,0,0,0,0,0
1570468214984.38,4.56,0,0,0,0,0
1570468215000,20.1,0,0,0,0,0
1570468215015.63,33.74,0,0,0,0,0
1570468215031.25,44.84,0,0,0,0,0
1570468215046.88,53.06,0,0,0,0,0
1570468215062.5,58.16,0,0,0,0,0
1570468215078.13,59.95,0,0,0,0,0
1570468215093.75,58.42,0,0,0,0,0
1570468215109.38,53.88,0,0,0,0,0
1570468215125,47.04,0,0,0,0,0
1570468215140.63,38.83,0,0,0,0,0
1570468215156.25,30.15,0,0,0,0,0
1570468215171.88,21.58,0,0,0,0,0
1570468215187.5,13.28,0,0,0,0,0
1570468215203.13,5.14,0,0,0,0,0
1570468215218.75,-3.05,0,0,0,0,0
1570468215234.38,-11.3,0,0,0,0,0
1570468215250,-19.34,0,0,0,0,0
1570468215265.63,-26.68,0,0,0,0,0
1570468215281.25,-32.86,0,0,0,0,0
1570468215296.88,-37.6,0,0,0,0,0
1570468215312.5,-41.01,0,0,0,0,0
1570468215328.13,-43.52,0,0,0,0,0
1570468215343.75,-45.83,0,0,0,0,0
1570468215359.38,-48.62,0,0,0,0,0
1570468215375,-52.39,0,0,0,0,0
1570468215390.63,-57.23,0,0,0,0,0
1570468215406.25,-62.57,0,0,0,0,0
1570468215421.88,-67.27,0,0,0,0,0
1570468215437.5,-69.8,0,0,0,0,0
1570468215453.13,-68.78,0,0,0,0,0
1570468215468.75,-63.48,0,0,0,0,0
1570468215484.38,-54.29,0,0,0,0,0
1570468215500,-42.61,0,0,0,0,0
1570468215515.63,-30.46,0,0,0,0,0
1570468215531.25,-19.68,0,0,0,0,0
1570468215546.88,-11.36,0,0,0,0,0
1570468215562.5,-5.65,0,0,0,0,0
1570468215578.13,-1.9,0,0,0,0,0
1570468215593.75,0.76,0,0,0,0,0
1570468215609.38,3.08,0,0,0,0,0
1570468215625,5.46,0,0,0,0,0
1570468215640.63,8.21,0,0,0,0,0
1570468215656.25,11.7,0,0,0,0,0
1570468215671.88,16.41,0,0,0,0,0
1570468215687.5,22.75,0,0,0,0,0
1570468215703.13,30.62,0,0,0,0,0
1570468215718.75,39.24,0,0,0,0,0
1570468215734.38,47.28,0,0,0,0,0
1570468215750,53.27,0,0,0,0,0
1570468215765.63,56.27,0,0,0,0,0
1570468215781.25,56.2,0,0,0,0,0
1570468215796.88,53.87,0,0,0,0,0
1570468215812.5,50.6,0,0,0,0,0
1570468215828.13,47.68,0,0,0,0,0
1570468215843.75,45.91,0,0,0,0,0
1570468215859.38,45.39,0,0,0,0,0
1570468215875,45.64,0,0,0,0,0
1570468215890.63,45.82,0,0,0,0,0
1570468215906.25,45.06,0,0,0,0,0
1570468215921.88,42.71,0,0,0,0,0
1570468215937.5,38.66,0,0,0,0,0
1570468215953.13,33.53,0,0,0,0,0
1570468215968.75,28.64,0,0,0,0,0
1570468215984.38,25.73,0,0,0,0,0
1570468216000,26.44,0,0,0,0,0
1570468216015.63,31.68,0,0,0,0,0
1570468216031.25,41.21,0,0,0,0,0
1570468216046.88,53.67,0,0,0,0,0
1570468216062.5,66.97,0,0,0,0,0
1570468216078.13,78.92,0,0,0,0,0
1570468216093.75,87.71,0,0,0,0,0
1570468216109.38,92.28,0,0,0,0,0
1570468216125,92.23,0,0,0,0,0
1570468216140.63,87.81,0,0,0,0,0
1570468216156.25,79.74,0,0,0,0,0
1570468216171.88,69.13,0,0,0,0,0
1570468216187.5,57.33,0,0,0,0,0
1570468216203.13,45.64,0,0,0,0,0
1570468216218.75,35.06,0,0,0,0,0
1570468216234.38,26.1,0,0,0,0,0
1570468216250,18.77,0,0,0,0,0
1570468216265.63,12.83,0,0,0,0,0
1570468216281.25,8,0,0,0,0,0
1570468216296.88,4.19,0,0,0,0,0
1570468216312.5,1.37,0,0,0,0,0
1570468216328.13,-0.54,0,0,0,0,0
1570468216343.75,-1.86,0,0,0,0,0
1570468216359.38,-3.21,0,0,0,0,0
1570468216375,-5.36,0,0,0,0,0
1570468216390.63,-9.12,0,0,0,0,0
1570468216406.25,-15.09,0,0,0,0,0
1570468216421.88,-23.54,0,0,0,0,0
1570468216437.5,-34.2,0,0,0,0,0
1570468216453.13,-46.1,0,0,0,0,0
1570468216468.75,-57.51,0,0,0,0,0
1570468216484.38,-66.17,0,0,0,0,0
1570468216500,-69.82,0,0,0,0,0
1570468216515.63,-67.01,0,0,0,0,0
1570468216531.25,-57.72,0,0,0,0,0
1570468216546.88,-43.55,0,0,0,0,0
1570468216562.5,-27.23,0,0,0,0,0
1570468216578.13,-11.71,0,0,0,0,0
1570468216593.75,0.76,0,0,0,0,0
1570468216609.38,9.22,0,0,0,0,0
1570468216625,13.94,0,0,0,0,0
1570468216640.63,15.85,0,0,0,0,0
1570468216656.25,15.95,0,0,0,0,0
1570468216671.88,14.9,0,0,0,0,0
1570468216687.5,13.04,0,0,0,0,0
1570468216703.13,10.61,0,0,0,0,0
1570468216718.75,7.94,0,0,0,0,0
1570468216734.38,5.46,0,0,0,0,0
1570468216750,3.49,0,0,0,0,0
1570468216765.63,2.02,0,0,0,0,0
1570468216781.25,0.67,0,0,0,0,0
1570468216796.88,-1.07,0,0,0,0,0
1570468216812.5,-3.53,0,0,0,0,0
1570468216828.13,-6.66,0,0,0,0,0
1570468216843.75,-10.01,0,0,0,0,0
1570468216859.38,-13.01,0,0,0,0,0
1570468216875,-15.25,0,0,0,0,0
1570468216890.63,-16.74,0,0,0,0,0
1570468216906.25,-17.92,0,0,0,0,0
1570468216921.88,-19.44,0,0,0,0,0
1570468216937.5,-21.95,0,0,0,0,0
1570468216953.13,-25.74,0,0,0,0,0
1570468216968.75,-30.49,0,0,0,0,0
1570468216984.38,-35.23,0,0,0,0,0
1570468217000,-38.52,0,0,0,0,0
1570468217015.63,-38.84,0,0,0,0,0
1570468217031.25,-35.15,0,0,0,0,0
1570468217046.88,-27.34,0,0,0,0,0
1570468217062.5,-16.4,0,0,0,0,0
1570468217078.13,-4.08,0,0,0,0,0
1570468217093.75,7.65,0,0,0,0,0
1570468217109.38,17.21,0,0,0,0,0
1570468217125,23.84,0,0,0,0,0
1570468217140.63,27.54,0,0,0,0,0
1570468217156.25,28.84,0,0,0,0,0
1570468217171.88,28.4,0,0,0,0,0
1570468217187.5,26.77,0,0,0,0,0
1570468217203.13,24.38,0,0,0,0,0
1570468217218.75,21.62,0,0,0,0,0
1570468217234.38,18.86,0,0,0,0,0
1570468217250,16.41,0,0,0,0,0
1570468217265.63,14.35,0,0,0,0,0
1570468217281.25,12.49,0,0,0,0,0
1570468217296.88,10.45,0,0,0,0,0
1570468217312.5,7.82,0,0,0,0,0
1570468217328.13,4.36,0,0,0,0,0
1570468217343.75,0.15,0,0,0,0,0
1570468217359.38,-4.41,0,0,0,0,0
1570468217375,-8.78,0,0,0,0,0
1570468217390.63,-12.48,0,0,0,0,0
1570468217406.25,-15.24,0,0,0,0,0
1570468217421.88,-17.12,0,0,0,0,0
1570468217437.5,-18.51,0,0,0,0,0
1570468217453.13,-20.04,0,0,0,0,0
1570468217468.75,-22.41,0,0,0,0,0
1570468217484.38,-26.2,0,0,0,0,0
1570468217500,-31.54,0,0,0,0,0
1570468217515.63,-37.91,0,0,0,0,0
1570468217531.25,-44.1,0,0,0,0,0
1570468217546.88,-48.45,0,0,0,0,0
1570468217562.5,-49.32,0,0,0,0,0
1570468217578.13,-45.69,0,0,0,0,0
1570468217593.75,-37.49,0,0,0,0,0
1570468217609.38,-25.7,0,0,0,0,0
1570468217625,-12.03,0,0,0,0,0
1570468217640.63,1.71,0,0,0,0,0
1570468217656.25,14.01,0,0,0,0,0
1570468217671.88,23.95,0,0,0,0,0
1570468217687.5,31.19,0,0,0,0,0
1570468217703.13,35.76,0,0,0,0,0
1570468217718.75,37.86,0,0,0,0,0
1570468217734.38,37.76,0,0,0,0,0
1570468217750,35.82,0,0,0,0,0
1570468217765.63,32.56,0,0,0,0,0
1570468217781.25,28.54,0,0,0,0,0
1570468217796.88,24.3,0,0,0,0,0
1570468217812.5,20.23,0,0,0,0,0
1570468217828.13,16.44,0,0,0,0,0
1570468217843.75,12.9,0,0,0,0,0
1570468217859.38,9.49,0,0,0,0,0
1570468217875,6.16,0,0,0,0,0
1570468217890.63,3.03,0,0,0,0,0
1570468217906.25,0.26,0,0,0,0,0
1570468217921.88,-1.98,0,0,0,0,0
1570468217937.5,-3.76,0,0,0,0,0
1570468217953.13,-5.4,0,0,0,0,0
1570468217968.75,-7.45,0,0,0,0,0
1570468217984.38,-10.57,0,0,0,0,0
1570468218000,-15.31,0,0,0,0,0
1570468218015.63,-21.96,0,0,0,0,0
1570468218031.25,-30.32,0,0,0,0,0
1570468218046.88,-39.53,0,0,0,0,0
1570468218062.5,-48.07,0,0,0,0,0
1570468218078.13,-54.05,0,0,0,0,0
1570468218093.75,-55.68,0,0,0,0,0
1570468218109.38,-51.93,0,0,0,0,0
1570468218125,-42.96,0,0,0,0,0
1570468218140.63,-30.16,0,0,0,0,0
1570468218156.25,-15.67,0,0,0,0,0
1570468218171.88,-1.64,0,0,0,0,0
1570468218187.5,10.41,0,0,0,0,0
1570468218203.13,19.84,0,0,0,0,0
1570468218218.75,26.76,0,0,0,0,0
1570468218234.38,31.5,0,0,0,0,0
1570468218250,34.33,0,0,0,0,0
1570468218265.63,35.38,0,0,0,0,0
1570468218281.25,34.8,0,0,0,0,0
1570468218296.88,33.04,0,0,0,0,0
1570468218312.5,30.78,0,0,0,0,0
1570468218328.13,28.69,0,0,0,0,0
1570468218343.75,27.04,0,0,0,0,0
1570468218359.38,25.51,0,0,0,0,0
1570468218375,23.34,0,0,0,0,0
1570468218390.63,19.75,0,0,0,0,0
1570468218406.25,14.39,0,0,0,0,0
1570468218421.88,7.57,0,0,0,0,0
1570468218437.5,0.17,0,0,0,0,0
1570468218453.13,-6.73,0,0,0,0,0
1570468218468.75,-12.3,0,0,0,0,0
1570468218484.38,-16.32,0,0,0,0,0
1570468218500,-19.12,0,0,0,0,0
1570468218515.63,-21.48,0,0,0,0,0
1570468218531.25,-24.28,0,0,0,0,0
1570468218546.88,-28.27,0,0,0,0,0
1570468218562.5,-33.81,0,0,0,0,0
1570468218578.13,-40.67,0,0,0,0,0
1570468218593.75,-47.96,0,0,0,0,0
1570468218609.38,-54.19,0,0,0,0,0
1570468218625,-57.59,0,0,0,0,0
1570468218640.63,-56.59,0,0,0,0,0
1570468218656.25,-50.44,0,0,0,0,0
1570468218671.88,-39.54,0,0,0,0,0
1570468218687.5,-25.32,0,0,0,0,0
1570468218703.13,-9.84,0,0,0,0,0
1570468218718.75,4.96,0,0,0,0,0
1570468218734.38,17.67,0,0,0,0,0
1570468218750,27.67,0,0,0,0,0
1570468218765.63,34.87,0,0,0,0,0
1570468218781.25,39.43,0,0,0,0,0
1570468218796.88,41.56,0,0,0,0,0
1570468218812.5,41.5,0,0,0,0,0
1570468218828.13,39.73,0,0,0,0,0
1570468218843.75,36.98,0,0,0,0,0
1570468218859.38,34.12,0,0,0,0,0
1570468218875,31.8,0,0,0,0,0
1570468218890.63,30.19,0,0,0,0,0
1570468218906.25,28.93,0,0,0,0,0
1570468218921.88,27.31,0,0,0,0,0
1570468218937.5,24.66,0,0,0,0,0
1570468218953.13,20.68,0,0,0,0,0
1570468218968.75,15.58,0,0,0,0,0
1570468218984.38,9.96,0,0,0,0,0
1570468219000,4.56,0,0,0,0,0
1570468219015.63,-0.03,0,0,0,0,0
1570468219031.25,-3.57,0,0,0,0,0
1570468219046.88,-6.21,0,0,0,0,0
1570468219062.5,-8.51,0,0,0,0,0
1570468219078.13,-11.27,0,0,0,0,0
1570468219093.75,-15.36,0,0,0,0,0
1570468219109.38,-21.38,0,0,0,0,0
1570468219125,-29.28,0,0,0,0,0
1570468219140.63,-38.18,0,0,0,0,0
1570468219156.25,-46.38,0,0,0,0,0
1570468219171.88,-51.81,0,0,0,0,0
1570468219187.5,-52.67,0,0,0,0,0
1570468219203.13,-48.09,0,0,0,0,0
1570468219218.75,-38.47,0,0,0,0,0
1570468219234.38,-25.33,0,0,0,0,0
1570468219250,-10.76,0,0,0,0,0
1570468219265.63,3.23,0,0,0,0,0
1570468219281.25,15.23,0,0,0,0,0
1570468219296.88,24.56,0,0,0,0,0
1570468219312.5,31.1,0,0,0,0,0
1570468219328.13,34.96,0,0,0,0,0
1570468219343.75,36.35,0,0,0,0,0
1570468219359.38,35.61,0,0,0,0,0
1570468219375,33.32,0,0,0,0,0
1570468219390.63,30.38,0,0,0,0,0
1570468219406.25,27.78,0,0,0,0,0
1570468219421.88,26.28,0,0,0,0,0
1570468219437.5,26.11,0,0,0,0,0
1570468219453.13,26.85,0,0,0,0,0
1570468219468.75,27.6,0,0,0,0,0
1570468219484.38,27.41,0,0,0,0,0
1570468219500,25.62,0,0,0,0,0
1570468219515.63,22.19,0,0,0,0,0
1570468219531.25,17.61,0,0,0,0,0
1570468219546.88,12.63,0,0,0,0,0
1570468219562.5,7.93,0,0,0,0,0
1570468219578.13,3.85,0,0,0,0,0
1570468219593.75,0.28,0,0,0,0,0
1570468219609.38,-3.22,0,0,0,0,0
1570468219625,-7.25,0,0,0,0,0
1570468219640.63,-12.35,0,0,0,0,0
1570468219656.25,-18.83,0,0,0,0,0
1570468219671.88,-26.6,0,0,0,0,0
1570468219687.5,-35.17,0,0,0,0,0
1570468219703.13,-43.51,0,0,0,0,0
1570468219718.75,-50.19,0,0,0,0,0
1570468219734.38,-53.66,0,0,0,0,0
1570468219750,-52.69,0,0,0,0,0
1570468219765.63,-46.77,0,0,0,0,0
1570468219781.25,-36.37,0,0,0,0,0
1570468219796.88,-22.85,0,0,0,0,0
1570468219812.5,-8.05,0,0,0,0,0
1570468219828.13,6.19,0,0,0,0,0
1570468219843.75,18.55,0,0,0,0,0
1570468219859.38,28.29,0,0,0,0,0
1570468219875,35.18,0,0,0,0,0
1570468219890.63,39.22,0,0,0,0,0
1570468219906.25,40.46,0,0,0,0,0
1570468219921.88,39.1,0,0,0,0,0
1570468219937.5,35.6,0,0,0,0,0
1570468219953.13,30.77,0,0,0,0,0
1570468219968.75,25.74,0,0,0,0,0
1570468219984.38,21.54,0,0,0,0,0
1570468220000,18.8,0,0,0,0,0
1570468220015.63,17.52,0,0,0,0,0
1570468220031.25,17.12,0,0,0,0,0
1570468220046.88,16.76,0,0,0,0,0
1570468220062.5,15.72,0,0,0,0,0
1570468220078.13,13.75,0,0,0,0,0
1570468220093.75,11.06,0,0,0,0,0
1570468220109.38,8.15,0,0,0,0,0
1570468220125,5.5,0,0,0,0,0
1570468220140.63,3.29,0,0,0,0,0
1570468220156.25,1.33,0,0,0,0,0
1570468220171.88,-0.88,0,0,0,0,0
1570468220187.5,-3.99,0,0,0,0,0
1570468220203.13,-8.55,0,0,0,0,0
1570468220218.75,-14.78,0,0,0,0,0
1570468220234.38,-22.36,0,0,0,0,0
1570468220250,-30.35,0,0,0,0,0
1570468220265.63,-37.3,0,0,0,0,0
1570468220281.25,-41.54,0,0,0,0,0
1570468220296.88,-41.7,0,0,0,0,0
1570468220312.5,-37.19,0,0,0,0,0
1570468220328.13,-28.43,0,0,0,0,0
1570468220343.75,-16.71,0,0,0,0,0
1570468220359.38,-3.72,0,0,0,0,0
1570468220375,8.95,0,0,0,0,0
1570468220390.63,20.21,0,0,0,0,0
1570468220406.25,29.51,0,0,0,0,0
1570468220421.88,36.67,0,0,0,0,0
1570468220437.5,41.59,0,0,0,0,0
1570468220453.13,44.12,0,0,0,0,0
1570468220468.75,44.13,0,0,0,0,0
1570468220484.38,41.78,0,0,0,0,0
1570468220500,37.63,0,0,0,0,0
1570468220515.63,32.63,0,0,0,0,0
1570468220531.25,27.87,0,0,0,0,0
1570468220546.88,24.17,0,0,0,0,0
1570468220562.5,21.81,0,0,0,0,0
1570468220578.13,20.43,0,0,0,0,0
1570468220593.75,19.29,0,0,0,0,0
1570468220609.38,17.62,0,0,0,0,0
1570468220625,14.98,0,0,0,0,0
1570468220640.63,11.42,0,0,0,0,0
1570468220656.25,7.37,0,0,0,0,0
1570468220671.88,3.42,0,0,0,0,0
1570468220687.5,-0.09,0,0,0,0,0
1570468220703.13,-3.19,0,0,0,0,0
1570468220718.75,-6.31,0,0,0,0,0
1570468220734.38,-10.04,0,0,0,0,0
1570468220750,-14.98,0,0,0,0,0
1570468220765.63,-21.49,0,0,0,0,0
1570468220781.25,-29.59,0,0,0,0,0
1570468220796.88,-38.83,0,0,0,0,0
1570468220812.5,-48.19,0,0,0,0,0
1570468220828.13,-56.19,0,0,0,0,0
1570468220843.75,-61.07,0,0,0,0,0
1570468220859.38,-61.31,0,0,0,0,0
1570468220875,-56.15,0,0,0,0,0
1570468220890.63,-45.91,0,0,0,0,0
1570468220906.25,-31.96,0,0,0,0,0
1570468220921.88,-16.27,0,0,0,0,0
1570468220937.5,-0.79,0,0,0,0,0
1570468220953.13,13.13,0,0,0,0,0
1570468220968.75,24.88,0,0,0,0,0
1570468220984.38,34.4,0,0,0,0,0
1570468221000,41.82,0,0,0,0,0
1570468221015.63,47.13,0,0,0,0,0
1570468221031.25,50.21,0,0,0,0,0
1570468221046.88,51.05,0,0,0,0,0
1570468221062.5,49.95,0,0,0,0,0
1570468221078.13,47.65,0,0,0,0,0
1570468221093.75,45.05,0,0,0,0,0
1570468221109.38,42.89,0,0,0,0,0
1570468221125,41.47,0,0,0,0,0
1570468221140.63,40.46,0,0,0,0,0
1570468221156.25,39.11,0,0,0,0,0
1570468221171.88,36.51,0,0,0,0,0
1570468221187.5,32.01,0,0,0,0,0
1570468221203.13,25.41,0,0,0,0,0
1570468221218.75,17.05,0,0,0,0,0
1570468221234.38,7.64,0,0,0,0,0
1570468221250,-1.99,0,0,0,0,0
1570468221265.63,-11.2,0,0,0,0,0
1570468221281.25,-19.67,0,0,0,0,0
1570468221296.88,-27.42,0,0,0,0,0
1570468221312.5,-34.7,0,0,0,0,0
1570468221328.13,-41.91,0,0,0,0,0
1570468221343.75,-49.34,0,0,0,0,0
1570468221359.38,-57.11,0,0,0,0,0
1570468221375,-64.95,0,0,0,0,0
1570468221390.63,-72.14,0,0,0,0,0
1570468221406.25,-77.47,0,0,0,0,0
1570468221421.88,-79.55,0,0,0,0,0
1570468221437.5,-77.18,0,0,0,0,0
1570468221453.13,-69.83,0,0,0,0,0
1570468221468.75,-57.92,0,0,0,0,0
1570468221484.38,-42.75,0,0,0,0,0
1570468221500,-26.1,0,0,0,0,0
1570468221515.63,-9.68,0,0,0,0,0
1570468221531.25,5.29,0,0,0,0,0
1570468221546.88,18.15,0,0,0,0,0
1570468221562.5,28.59,0,0,0,0,0
1570468221578.13,36.42,0,0,0,0,0
1570468221593.75,41.47,0,0,0,0,0
1570468221609.38,43.65,0,0,0,0,0
1570468221625,43.2,0,0,0,0,0
1570468221640.63,40.82,0,0,0,0,0
1570468221656.25,37.52,0,0,0,0,0
1570468221671.88,34.34,0,0,0,0,0
1570468221687.5,31.96,0,0,0,0,0
1570468221703.13,30.38,0,0,0,0,0
1570468221718.75,29.07,0,0,0,0,0
1570468221734.38,27.16,0,0,0,0,0
1570468221750,23.91,0,0,0,0,0
1570468221765.63,19.05,0,0,0,0,0
1570468221781.25,12.84,0,0,0,0,0
1570468221796.88,5.95,0,0,0,0,0
1570468221812.5,-0.86,0,0,0,0,0
1570468221828.13,-7.09,0,0,0,0,0
1570468221843.75,-12.64,0,0,0,0,0
1570468221859.38,-17.85,0,0,0,0,0
1570468221875,-23.26,0,0,0,0,0
1570468221890.63,-29.46,0,0,0,0,0
1570468221906.25,-36.86,0,0,0,0,0
1570468221921.88,-45.55,0,0,0,0,0
1570468221937.5,-55.19,0,0,0,0,0
1570468221953.13,-64.82,0,0,0,0,0
1570468221968.75,-72.97,0,0,0,0,0
1570468221984.38,-77.83,0,0,0,0,0
1570468222000,-77.74,0,0,0,0,0
1570468222015.63,-71.76,0,0,0,0,0
1570468222031.25,-60.03,0,0,0,0,0
1570468222046.88,-43.8,0,0,0,0,0
1570468222062.5,-25.03,0,0,0,0,0
1570468222078.13,-5.76,0,0,0,0,0
1570468222093.75,12.35,0,0,0,0,0
1570468222109.38,28.28,0,0,0,0,0
1570468222125,41.52,0,0,0,0,0
1570468222140.63,51.83,0,0,0,0,0
1570468222156.25,59.07,0,0,0,0,0
1570468222171.88,63.22,0,0,0,0,0
1570468222187.5,64.52,0,0,0,0,0
1570468222203.13,63.6,0,0,0,0,0
1570468222218.75,61.42,0,0,0,0,0
1570468222234.38,58.98,0,0,0,0,0
1570468222250,57.03,0,0,0,0,0
1570468222265.63,55.79,0,0,0,0,0
1570468222281.25,54.96,0,0,0,0,0
1570468222296.88,53.97,0,0,0,0,0
1570468222312.5,52.24,0,0,0,0,0
1570468222328.13,49.48,0,0,0,0,0
1570468222343.75,45.77,0,0,0,0,0
1570468222359.38,41.44,0,0,0,0,0
1570468222375,36.89,0,0,0,0,0
1570468222390.63,32.35,0,0,0,0,0
1570468222406.25,27.78,0,0,0,0,0
1570468222421.88,22.87,0,0,0,0,0
1570468222437.5,17.15,0,0,0,0,0
1570468222453.13,10.13,0,0,0,0,0
1570468222468.75,1.56,0,0,0,0,0
1570468222484.38,-8.43,0,0,0,0,0
1570468222500,-19.18,0,0,0,0,0
1570468222515.63,-29.46,0,0,0,0,0
1570468222531.25,-37.62,0,0,0,0,0
1570468222546.88,-41.98,0,0,0,0,0
1570468222562.5,-41.35,0,0,0,0,0
1570468222578.13,-35.39,0,0,0,0,0
1570468222593.75,-24.8,0,0,0,0,0
1570468222609.38,-11.06,0,0,0,0,0
1570468222625,3.98,0,0,0,0,0
1570468222640.63,18.66,0,0,0,0,0
1570468222656.25,31.75,0,0,0,0,0
1570468222671.88,42.57,0,0,0,0,0
1570468222687.5,50.75,0,0,0,0,0
1570468222703.13,56.12,0,0,0,0,0
1570468222718.75,58.62,0,0,0,0,0
1570468222734.38,58.39,0,0,0,0,0
1570468222750,55.89,0,0,0,0,0
1570468222765.63,51.85,0,0,0,0,0
1570468222781.25,47.16,0,0,0,0,0
1570468222796.88,42.6,0,0,0,0,0
1570468222812.5,38.61,0,0,0,0,0
1570468222828.13,35.21,0,0,0,0,0
1570468222843.75,32.07,0,0,0,0,0
1570468222859.38,28.7,0,0,0,0,0
1570468222875,24.75,0,0,0,0,0
1570468222890.63,20.12,0,0,0,0,0
1570468222906.25,15.02,0,0,0,0,0
1570468222921.88,9.82,0,0,0,0,0
1570468222937.5,4.88,0,0,0,0,0
1570468222953.13,0.34,0,0,0,0,0
1570468222968.75,-3.96,0,0,0,0,0
1570468222984.38,-8.48,0,0,0,0,0
1570468223000,-13.82,0,0,0,0,0
1570468223015.63,-20.5,0,0,0,0,0
1570468223031.25,-28.73,0,0,0,0,0
1570468223046.88,-38.13,0,0,0,0,0
1570468223062.5,-47.64,0,0,0,0,0
1570468223078.13,-55.59,0,0,0,0,0
1570468223093.75,-60.13,0,0,0,0,0
1570468223109.38,-59.74,0,0,0,0,0
1570468223125,-53.85,0,0,0,0,0
1570468223140.63,-43.05,0,0,0,0,0
1570468223156.25,-28.96,0,0,0,0,0
1570468223171.88,-13.68,0,0,0,0,0
1570468223187.5,0.86,0,0,0,0,0
1570468223203.13,13.3,0,0,0,0,0
1570468223218.75,22.96,0,0,0,0,0
1570468223234.38,29.6,0,0,0,0,0
1570468223250,33.17,0,0,0,0,0
1570468223265.63,33.72,0,0,0,0,0
1570468223281.25,31.48,0,0,0,0,0
1570468223296.88,27.06,0,0,0,0,0
1570468223312.5,21.54,0,0,0,0,0
1570468223328.13,16.24,0,0,0,0,0
1570468223343.75,12.32,0,0,0,0,0
1570468223359.38,10.33,0,0,0,0,0
1570468223375,10.08,0,0,0,0,0
1570468223390.63,10.73,0,0,0,0,0
1570468223406.25,11.21,0,0,0,0,0
1570468223421.88,10.67,0,0,0,0,0
1570468223437.5,8.78,0,0,0,0,0
1570468223453.13,5.82,0,0,0,0,0
1570468223468.75,2.42,0,0,0,0,0
1570468223484.38,-0.75,0,0,0,0,0
1570468223500,-3.29,0,0,0,0,0
1570468223515.63,-5.2,0,0,0,0,0
1570468223531.25,-6.8,0,0,0,0,0
1570468223546.88,-8.59,0,0,0,0,0
1570468223562.5,-11.11,0,0,0,0,0
1570468223578.13,-14.74,0,0,0,0,0
1570468223593.75,-19.64,0,0,0,0,0
1570468223609.38,-25.57,0,0,0,0,0
1570468223625,-31.83,0,0,0,0,0
1570468223640.63,-37.3,0,0,0,0,0
1570468223656.25,-40.68,0,0,0,0,0
1570468223671.88,-40.86,0,0,0,0,0
1570468223687.5,-37.31,0,0,0,0,0
1570468223703.13,-30.27,0,0,0,0,0
1570468223718.75,-20.64,0,0,0,0,0
1570468223734.38,-9.63,0,0,0,0,0
1570468223750,1.57,0,0,0,0,0
1570468223765.63,12.01,0,0,0,0,0
1570468223781.25,21.09,0,0,0,0,0
1570468223796.88,28.41,0,0,0,0,0
1570468223812.5,33.69,0,0,0,0,0
1570468223828.13,36.79,0,0,0,0,0
1570468223843.75,37.79,0,0,0,0,0
1570468223859.38,37.06,0,0,0,0,0
1570468223875,35.15,0,0,0,0,0
1570468223890.63,32.67,0,0,0,0,0
1570468223906.25,30.03,0,0,0,0,0
1570468223921.88,27.37,0,0,0,0,0
1570468223937.5,24.57,0,0,0,0,0
1570468223953.13,21.43,0,0,0,0,0
1570468223968.75,17.82,0,0,0,0,0
1570468223984.38,13.81,0,0,0,0,0
1570468224000,9.66,0,0,0,0,0
1570468224015.63,5.69,0,0,0,0,0
1570468224031.25,2.18,0,0,0,0,0
1570468224046.88,-0.85,0,0,0,0,0
1570468224062.5,-3.61,0,0,0,0,0
1570468224078.13,-6.56,0,0,0,0,0
1570468224093.75,-10.32,0,0,0,0,0
1570468224109.38,-15.38,0,0,0,0,0
1570468224125,-21.92,0,0,0,0,0
1570468224140.63,-29.6,0,0,0,0,0
1570468224156.25,-37.44,0,0,0,0,0
1570468224171.88,-43.91,0,0,0,0,0
1570468224187.5,-47.36,0,0,0,0,0
1570468224203.13,-46.45,0,0,0,0,0
1570468224218.75,-40.67,0,0,0,0,0
1570468224234.38,-30.54,0,0,0,0,0
1570468224250,-17.4,0,0,0,0,0
1570468224265.63,-3.03,0,0,0,0,0
1570468224281.25,10.92,0,0,0,0,0
1570468224296.88,23.27,0,0,0,0,0
1570468224312.5,33.31,0,0,0,0,0
1570468224328.13,40.73,0,0,0,0,0
1570468224343.75,45.37,0,0,0,0,0
1570468224359.38,47.2,0,0,0,0,0
1570468224375,46.45,0,0,0,0,0
1570468224390.63,43.65,0,0,0,0,0
1570468224406.25,39.63,0,0,0,0,0
1570468224421.88,35.25,0,0,0,0,0
1570468224437.5,31.14,0,0,0,0,0
1570468224453.13,27.53,0,0,0,0,0
1570468224468.75,24.26,0,0,0,0,0
1570468224484.38,21.01,0,0,0,0,0
1570468224500,17.57,0,0,0,0,0
1570468224515.63,13.94,0,0,0,0,0
1570468224531.25,10.35,0,0,0,0,0
1570468224546.88,7.09,0,0,0,0,0
1570468224562.5,4.37,0,0,0,0,0
1570468224578.13,2.18,0,0,0,0,0
1570468224593.75,0.29,0,0,0,0,0
1570468224609.38,-1.73,0,0,0,0,0
1570468224625,-4.43,0,0,0,0,0
1570468224640.63,-8.34,0,0,0,0,0
1570468224656.25,-13.83,0,0,0,0,0
1570468224671.88,-20.84,0,0,0,0,0
1570468224687.5,-28.63,0,0,0,0,0
1570468224703.13,-35.8,0,0,0,0,0
1570468224718.75,-40.51,0,0,0,0,0
1570468224734.38,-41.05,0,0,0,0,0
1570468224750,-36.47,0,0,0,0,0
1570468224765.63,-26.99,0,0,0,0,0
1570468224781.25,-13.94,0,0,0,0,0
1570468224796.88,0.65,0,0,0,0,0
1570468224812.5,14.85,0,0,0,0,0
1570468224828.13,27.31,0,0,0,0,0
1570468224843.75,37.53,0,0,0,0,0
1570468224859.38,45.51,0,0,0,0,0
1570468224875,51.45,0,0,0,0,0
1570468224890.63,55.31,0,0,0,0,0
1570468224906.25,56.91,0,0,0,0,0
1570468224921.88,56.17,0,0,0,0,0
1570468224937.5,53.37,0,0,0,0,0
1570468224953.13,49.29,0,0,0,0,0
1570468224968.75,44.93,0,0,0,0,0
1570468224984.38,41.08,0,0,0,0,0
1570468225000,37.94,0,0,0,0,0
1570468225015.63,35.07,0,0,0,0,0
1570468225031.25,31.59,0,0,0,0,0
1570468225046.88,26.72,0,0,0,0,0
1570468225062.5,20.17,0,0,0,0,0
1570468225078.13,12.3,0,0,0,0,0
1570468225093.75,3.98,0,0,0,0,0
1570468225109.38,-3.83,0,0,0,0,0
1570468225125,-10.5,0,0,0,0,0
1570468225140.63,-15.9,0,0,0,0,0
1570468225156.25,-20.46,0,0,0,0,0
1570468225171.88,-24.87,0,0,0,0,0
1570468225187.5,-29.89,0,0,0,0,0
1570468225203.13,-36.05,0,0,0,0,0
1570468225218.75,-43.54,0,0,0,0,0
1570468225234.38,-52.06,0,0,0,0,0
1570468225250,-60.79,0,0,0,0,0
1570468225265.63,-68.4,0,0,0,0,0
1570468225281.25,-73.27,0,0,0,0,0
1570468225296.88,-73.91,0,0,0,0,0
1570468225312.5,-69.49,0,0,0,0,0
1570468225328.13,-60.16,0,0,0,0,0
1570468225343.75,-47.08,0,0,0,0,0
1570468225359.38,-32.03,0,0,0,0,0
1570468225375,-16.86,0,0,0,0,0
1570468225390.63,-2.96,0,0,0,0,0
1570468225406.25,8.89,0,0,0,0,0
1570468225421.88,18.37,0,0,0,0,0
1570468225437.5,25.41,0,0,0,0,0
1570468225453.13,29.89,0,0,0,0,0
1570468225468.75,31.77,0,0,0,0,0
1570468225484.38,31.23,0,0,0,0,0
1570468225500,28.85,0,0,0,0,0
1570468225515.63,25.54,0,0,0,0,0
1570468225531.25,22.29,0,0,0,0,0
1570468225546.88,19.76,0,0,0,0,0
1570468225562.5,18.07,0,0,0,0,0
1570468225578.13,16.7,0,0,0,0,0
1570468225593.75,14.84,0,0,0,0,0
1570468225609.38,11.8,0,0,0,0,0
1570468225625,7.32,0,0,0,0,0
1570468225640.63,1.75,0,0,0,0,0
1570468225656.25,-4.17,0,0,0,0,0
1570468225671.88,-9.64,0,0,0,0,0
1570468225687.5,-14.15,0,0,0,0,0
1570468225703.13,-17.64,0,0,0,0,0
1570468225718.75,-20.46,0,0,0,0,0
1570468225734.38,-23.18,0,0,0,0,0
1570468225750,-26.41,0,0,0,0,0
1570468225765.63,-30.57,0,0,0,0,0
1570468225781.25,-35.8,0,0,0,0,0
1570468225796.88,-41.8,0,0,0,0,0
1570468225812.5,-47.78,0,0,0,0,0
1570468225828.13,-52.45,0,0,0,0,0
1570468225843.75,-54.32,0,0,0,0,0
1570468225859.38,-52.09,0,0,0,0,0
1570468225875,-45.22,0,0,0,0,0
1570468225890.63,-34.15,0,0,0,0,0
1570468225906.25,-20.26,0,0,0,0,0
1570468225921.88,-5.37,0,0,0,0,0
1570468225937.5,8.83,0,0,0,0,0
1570468225953.13,21.19,0,0,0,0,0
1570468225968.75,31.22,0,0,0,0,0
1570468225984.38,38.83,0,0,0,0,0
1570468226000,44.07,0,0,0,0,0
1570468226015.63,46.89,0,0,0,0,0
1570468226031.25,47.28,0,0,0,0,0
1570468226046.88,45.42,0,0,0,0,0
1570468226062.5,41.87,0,0,0,0,0
1570468226078.13,37.45,0,0,0,0,0
1570468226093.75,33.02,0,0,0,0,0
1570468226109.38,29.14,0,0,0,0,0
1570468226125,25.88,0,0,0,0,0
1570468226140.63,22.95,0,0,0,0,0
1570468226156.25,19.87,0,0,0,0,0
1570468226171.88,16.31,0,0,0,0,0
1570468226187.5,12.19,0,0,0,0,0
1570468226203.13,7.76,0,0,0,0,0
1570468226218.75,3.4,0,0,0,0,0
1570468226234.38,-0.6,0,0,0,0,0
1570468226250,-4.13,0,0,0,0,0
1570468226265.63,-7.39,0,0,0,0,0
1570468226281.25,-10.83,0,0,0,0,0
1570468226296.88,-15.03,0,0,0,0,0
1570468226312.5,-20.53,0,0,0,0,0
1570468226328.13,-27.62,0,0,0,0,0
1570468226343.75,-36.01,0,0,0,0,0
1570468226359.38,-44.77,0,0,0,0,0
1570468226375,-52.33,0,0,0,0,0
1570468226390.63,-56.91,0,0,0,0,0
1570468226406.25,-57,0,0,0,0,0
1570468226421.88,-51.93,0,0,0,0,0
1570468226437.5,-42.11,0,0,0,0,0
1570468226453.13,-28.92,0,0,0,0,0
1570468226468.75,-14.23,0,0,0,0,0
1570468226484.38,0.19,0,0,0,0,0
1570468226500,13.05,0,0,0,0,0
1570468226515.63,23.64,0,0,0,0,0
1570468226531.25,31.64,0,0,0,0,0
1570468226546.88,36.86,0,0,0,0,0
1570468226562.5,39.11,0,0,0,0,0
1570468226578.13,38.3,0,0,0,0,0
1570468226593.75,34.66,0,0,0,0,0
1570468226609.38,28.87,0,0,0,0,0
1570468226625,22.08,0,0,0,0,0
1570468226640.63,15.56,0,0,0,0,0
1570468226656.25,10.26,0,0,0,0,0
1570468226671.88,6.57,0,0,0,0,0
1570468226687.5,4.14,0,0,0,0,0
1570468226703.13,2.19,0,0,0,0,0
1570468226718.75,-0.11,0,0,0,0,0
1570468226734.38,-3.25,0,0,0,0,0
1570468226750,-7.11,0,0,0,0,0
1570468226765.63,-11.13,0,0,0,0,0
1570468226781.25,-14.51,0,0,0,0,0
1570468226796.88,-16.59,0,0,0,0,0
1570468226812.5,-17.11,0,0,0,0,0
1570468226828.13,-16.3,0,0,0,0,0
1570468226843.75,-14.77,0,0,0,0,0
1570468226859.38,-13.39,0,0,0,0,0
1570468226875,-13.08,0,0,0,0,0
1570468226890.63,-14.59,0,0,0,0,0
1570468226906.25,-18.21,0,0,0,0,0
1570468226921.88,-23.57,0,0,0,0,0
1570468226937.5,-29.61,0,0,0,0,0
1570468226953.13,-34.74,0,0,0,0,0
1570468226968.75,-37.32,0,0,0,0,0
1570468226984.38,-36.15,0,0,0,0,0
1570468227000,-30.88,0,0,0,0,0
1570468227015.63,-22.07,0,0,0,0,0
1570468227031.25,-10.89,0,0,0,0,0
1570468227046.88,1.31,0,0,0,0,0
1570468227062.5,13.36,0,0,0,0,0
1570468227078.13,24.42,0,0,0,0,0
1570468227093.75,33.9,0,0,0,0,0
1570468227109.38,41.31,0,0,0,0,0
1570468227125,46.22,0,0,0,0,0
1570468227140.63,48.36,0,0,0,0,0
1570468227156.25,47.82,0,0,0,0,0
1570468227171.88,45.18,0,0,0,0,0
1570468227187.5,41.39,0,0,0,0,0
1570468227203.13,37.49,0,0,0,0,0
1570468227218.75,34.29,0,0,0,0,0
1570468227234.38,32.05,0,0,0,0,0
1570468227250,30.53,0,0,0,0,0
1570468227265.63,29.15,0,0,0,0,0
1570468227281.25,27.35,0,0,0,0,0
1570468227296.88,24.9,0,0,0,0,0
1570468227312.5,22,0,0,0,0,0
1570468227328.13,19.16,0,0,0,0,0
1570468227343.75,16.89,0,0,0,0,0
1570468227359.38,15.43,0,0,0,0,0
1570468227375,14.57,0,0,0,0,0
1570468227390.63,13.66,0,0,0,0,0
1570468227406.25,11.86,0,0,0,0,0
1570468227421.88,8.44,0,0,0,0,0
1570468227437.5,2.98,0,0,0,0,0
1570468227453.13,-4.44,0,0,0,0,0
1570468227468.75,-13.21,0,0,0,0,0
1570468227484.38,-22.17,0,0,0,0,0
1570468227500,-29.83,0,0,0,0,0
1570468227515.63,-34.61,0,0,0,0,0
1570468227531.25,-35.3,0,0,0,0,0
1570468227546.88,-31.4,0,0,0,0,0
1570468227562.5,-23.34,0,0,0,0,0
1570468227578.13,-12.28,0,0,0,0,0
1570468227593.75,0.18,0,0,0,0,0
1570468227609.38,12.6,0,0,0,0,0
1570468227625,23.92,0,0,0,0,0
1570468227640.63,33.56,0,0,0,0,0
1570468227656.25,41.21,0,0,0,0,0
1570468227671.88,46.56,0,0,0,0,0
1570468227687.5,49.21,0,0,0,0,0
1570468227703.13,48.8,0,0,0,0,0
1570468227718.75,45.33,0,0,0,0,0
1570468227734.38,39.3,0,0,0,0,0
1570468227750,31.77,0,0,0,0,0
1570468227765.63,23.97,0,0,0,0,0
1570468227781.25,16.83,0,0,0,0,0
1570468227796.88,10.7,0,0,0,0,0
1570468227812.5,5.22,0,0,0,0,0
1570468227828.13,-0.48,0,0,0,0,0
1570468227843.75,-7.26,0,0,0,0,0
1570468227859.38,-15.67,0,0,0,0,0
1570468227875,-25.64,0,0,0,0,0
1570468227890.63,-36.65,0,0,0,0,0
1570468227906.25,-47.92,0,0,0,0,0
1570468227921.88,-58.79,0,0,0,0,0
1570468227937.5,-69.04,0,0,0,0,0
1570468227953.13,-78.96,0,0,0,0,0
1570468227968.75,-89.43,0,0,0,0,0
1570468227984.38,-101.74,0,0,0,0,0
1570468228000,-117.28,0,0,0,0,0
1570468228015.63,-136.88,0,0,0,0,0
1570468228031.25,-160.19,0,0,0,0,0
1570468228046.88,-185.15,0,0,0,0,0
1570468228062.5,-208.18,0,0,0,0,0
1570468228078.13,-225.06,0,0,0,0,0
1570468228093.75,-232.32,0,0,0,0,0
1570468228109.38,-228.42,0,0,0,0,0
1570468228125,-214.26,0,0,0,0,0
1570468228140.63,-192.73,0,0,0,0,0
1570468228156.25,-167.47,0,0,0,0,0
1570468228171.88,-141.62,0,0,0,0,0
1570468228187.5,-117.1,0,0,0,0,0
1570468228203.13,-94.63,0,0,0,0,0
1570468228218.75,-74.42,0,0,0,0,0
1570468228234.38,-56.72,0,0,0,0,0
1570468228250,-42.1,0,0,0,0,0
1570468228265.63,-31.17,0,0,0,0,0
1570468228281.25,-24.06,0,0,0,0,0
1570468228296.88,-20.12,0,0,0,0,0
1570468228312.5,-17.98,0,0,0,0,0
1570468228328.13,-16.01,0,0,0,0,0
1570468228343.75,-12.96,0,0,0,0,0
1570468228359.38,-8.2,0,0,0,0,0
1570468228375,-1.77,0,0,0,0,0
1570468228390.63,6.02,0,0,0,0,0
1570468228406.25,14.86,0,0,0,0,0
1570468228421.88,24.49,0,0,0,0,0
1570468228437.5,34.41,0,0,0,0,0
1570468228453.13,43.58,0,0,0,0,0
1570468228468.75,50.46,0,0,0,0,0
1570468228484.38,53.39,0,0,0,0,0
1570468228500,51.32,0,0,0,0,0
1570468228515.63,44.37,0,0,0,0,0
1570468228531.25,33.79,0,0,0,0,0
1570468228546.88,21.57,0,0,0,0,0
1570468228562.5,9.71,0,0,0,0,0
1570468228578.13,-0.33,0,0,0,0,0
1570468228593.75,-7.62,0,0,0,0,0
1570468228609.38,-11.64,0,0,0,0,0
1570468228625,-12.03,0,0,0,0,0
1570468228640.63,-8.57,0,0,0,0,0
1570468228656.25,-1.45,0,0,0,0,0
1570468228671.88,8.56,0,0,0,0,0
1570468228687.5,20.13,0,0,0,0,0
1570468228703.13,31.71,0,0,0,0,0
1570468228718.75,41.95,0,0,0,0,0
1570468228734.38,50.04,0,0,0,0,0
1570468228750,55.72,0,0,0,0,0
1570468228765.63,59.15,0,0,0,0,0
1570468228781.25,60.72,0,0,0,0,0
1570468228796.88,60.87,0,0,0,0,0
1570468228812.5,60.05,0,0,0,0,0
1570468228828.13,58.76,0,0,0,0,0
1570468228843.75,57.41,0,0,0,0,0
1570468228859.38,56.3,0,0,0,0,0
1570468228875,55.6,0,0,0,0,0
1570468228890.63,55.21,0,0,0,0,0
1570468228906.25,54.92,0,0,0,0,0
1570468228921.88,54.45,0,0,0,0,0
1570468228937.5,53.51,0,0,0,0,0
1570468228953.13,51.93,0,0,0,0,0
1570468228968.75,49.71,0,0,0,0,0
1570468228984.38,47,0,0,0,0,0
1570468229000,44.08,0,0,0,0,0
1570468229015.63,41.32,0,0,0,0,0
1570468229031.25,39.07,0,0,0,0,0
1570468229046.88,37.51,0,0,0,0,0
1570468229062.5,36.54,0,0,0,0,0
1570468229078.13,35.79,0,0,0,0,0
1570468229093.75,34.83,0,0,0,0,0
1570468229109.38,33.38,0,0,0,0,0
1570468229125,31.66,0,0,0,0,0
1570468229140.63,30.4,0,0,0,0,0
1570468229156.25,30.73,0,0,0,0,0
1570468229171.88,33.74,0,0,0,0,0
1570468229187.5,40.05,0,0,0,0,0
1570468229203.13,49.49,0,0,0,0,0
1570468229218.75,61.08,0,0,0,0,0
1570468229234.38,73.31,0,0,0,0,0
1570468229250,84.6,0,0,0,0,0
1570468229265.63,93.63,0,0,0,0,0
1570468229281.25,99.63,0,0,0,0,0
1570468229296.88,102.32,0,0,0,0,0
1570468229312.5,101.87,0,0,0,0,0
1570468229328.13,98.69,0,0,0,0,0
1570468229343.75,93.35,0,0,0,0,0
1570468229359.38,86.53,0,0,0,0,0
1570468229375,78.89,0,0,0,0,0
1570468229390.63,71.02,0,0,0,0,0
1570468229406.25,63.34,0,0,0,0,0
1570468229421.88,55.96,0,0,0,0,0
1570468229437.5,48.78,0,0,0,0,0
1570468229453.13,41.59,0,0,0,0,0
1570468229468.75,34.22,0,0,0,0,0
1570468229484.38,26.68,0,0,0,0,0
1570468229500,19.19,0,0,0,0,0
1570468229515.63,12.08,0,0,0,0,0
1570468229531.25,5.6,0,0,0,0,0
1570468229546.88,-0.18,0,0,0,0,0
1570468229562.5,-5.42,0,0,0,0,0
1570468229578.13,-10.5,0,0,0,0,0
1570468229593.75,-15.88,0,0,0,0,0
1570468229609.38,-22.02,0,0,0,0,0
1570468229625,-29.14,0,0,0,0,0
1570468229640.63,-37.05,0,0,0,0,0
1570468229656.25,-45.04,0,0,0,0,0
1570468229671.88,-51.8,0,0,0,0,0
1570468229687.5,-55.75,0,0,0,0,0
1570468229703.13,-55.48,0,0,0,0,0
1570468229718.75,-50.24,0,0,0,0,0
1570468229734.38,-40.23,0,0,0,0,0
1570468229750,-26.63,0,0,0,0,0
1570468229765.63,-11.23,0,0,0,0,0
1570468229781.25,4.06,0,0,0,0,0
1570468229796.88,17.58,0,0,0,0,0
1570468229812.5,28.24,0,0,0,0,0
1570468229828.13,35.53,0,0,0,0,0
1570468229843.75,39.47,0,0,0,0,0
1570468229859.38,40.47,0,0,0,0,0
1570468229875,39.26,0,0,0,0,0
1570468229890.63,36.68,0,0,0,0,0
1570468229906.25,33.57,0,0,0,0,0
1570468229921.88,30.54,0,0,0,0,0
1570468229937.5,27.93,0,0,0,0,0
1570468229953.13,25.77,0,0,0,0,0
1570468229968.75,23.88,0,0,0,0,0
1570468229984.38,21.99,0,0,0,0,0
1570468230000,19.84,0,0,0,0,0
1570468230015.63,17.23,0,0,0,0,0
1570468230031.25,14.08,0,0,0,0,0
1570468230046.88,10.39,0,0,0,0,0
1570468230062.5,6.27,0,0,0,0,0
1570468230078.13,1.86,0,0,0,0,0
1570468230093.75,-2.7,0,0,0,0,0
1570468230109.38,-7.33,0,0,0,0,0
1570468230125,-12.11,0,0,0,0,0
1570468230140.63,-17.21,0,0,0,0,0
1570468230156.25,-22.78,0,0,0,0,0
1570468230171.88,-28.74,0,0,0,0,0
1570468230187.5,-34.56,0,0,0,0,0
1570468230203.13,-39.32,0,0,0,0,0
1570468230218.75,-41.83,0,0,0,0,0
1570468230234.38,-41.13,0,0,0,0,0
1570468230250,-36.85,0,0,0,0,0
1570468230265.63,-29.48,0,0,0,0,0
1570468230281.25,-20.18,0,0,0,0,0
1570468230296.88,-10.38,0,0,0,0,0
1570468230312.5,-1.34,0,0,0,0,0
1570468230328.13,6.22,0,0,0,0,0
1570468230343.75,12.12,0,0,0,0,0
1570468230359.38,16.48,0,0,0,0,0
1570468230375,19.4,0,0,0,0,0
1570468230390.63,20.91,0,0,0,0,0
1570468230406.25,20.94,0,0,0,0,0
1570468230421.88,19.64,0,0,0,0,0
1570468230437.5,17.4,0,0,0,0,0
1570468230453.13,14.87,0,0,0,0,0
1570468230468.75,12.62,0,0,0,0,0
1570468230484.38,10.97,0,0,0,0,0
1570468230500,9.79,0,0,0,0,0
1570468230515.63,8.62,0,0,0,0,0
1570468230531.25,6.95,0,0,0,0,0
1570468230546.88,4.5,0,0,0,0,0
1570468230562.5,1.38,0,0,0,0,0
1570468230578.13,-2,0,0,0,0,0
1570468230593.75,-5.12,0,0,0,0,0
1570468230609.38,-7.66,0,0,0,0,0
1570468230625,-9.71,0,0,0,0,0
1570468230640.63,-11.71,0,0,0,0,0
1570468230656.25,-14.33,0,0,0,0,0
1570468230671.88,-18.13,0,0,0,0,0
1570468230687.5,-23.31,0,0,0,0,0
1570468230703.13,-29.52,0,0,0,0,0
1570468230718.75,-35.85,0,0,0,0,0
1570468230734.38,-41.01,0,0,0,0,0
1570468230750,-43.72,0,0,0,0,0
1570468230765.63,-43.02,0,0,0,0,0
1570468230781.25,-38.62,0,0,0,0,0
1570468230796.88,-30.92,0,0,0,0,0
1570468230812.5,-20.89,0,0,0,0,0
1570468230828.13,-9.78,0,0,0,0,0
1570468230843.75,1.24,0,0,0,0,0
1570468230859.38,11.24,0,0,0,0,0
1570468230875,19.63,0,0,0,0,0
1570468230890.63,26.1,0,0,0,0,0
1570468230906.25,30.52,0,0,0,0,0
1570468230921.88,32.91,0,0,0,0,0
1570468230937.5,33.41,0,0,0,0,0
1570468230953.13,32.3,0,0,0,0,0
1570468230968.75,30,0,0,0,0,0
1570468230984.38,26.96,0,0,0,0,0
1570468231000,23.55,0,0,0,0,0
1570468231015.63,20.01,0,0,0,0,0
1570468231031.25,16.43,0,0,0,0,0
1570468231046.88,12.8,0,0,0,0,0
1570468231062.5,9.16,0,0,0,0,0
1570468231078.13,5.6,0,0,0,0,0
1570468231093.75,2.34,0,0,0,0,0
1570468231109.38,-0.39,0,0,0,0,0
1570468231125,-2.46,0,0,0,0,0
1570468231140.63,-3.95,0,0,0,0,0
1570468231156.25,-5.12,0,0,0,0,0
1570468231171.88,-6.46,0,0,0,0,0
1570468231187.5,-8.5,0,0,0,0,0
1570468231203.13,-11.71,0,0,0,0,0
1570468231218.75,-16.33,0,0,0,0,0
1570468231234.38,-22.13,0,0,0,0,0
1570468231250,-28.32,0,0,0,0,0
1570468231265.63,-33.65,0,0,0,0,0
1570468231281.25,-36.67,0,0,0,0,0
1570468231296.88,-36.2,0,0,0,0,0
1570468231312.5,-31.76,0,0,0,0,0
1570468231328.13,-23.83,0,0,0,0,0
1570468231343.75,-13.65,0,0,0,0,0
1570468231359.38,-2.8,0,0,0,0,0
1570468231375,7.31,0,0,0,0,0
1570468231390.63,15.81,0,0,0,0,0
1570468231406.25,22.4,0,0,0,0,0
1570468231421.88,27.09,0,0,0,0,0
1570468231437.5,30.03,0,0,0,0,0
1570468231453.13,31.28,0,0,0,0,0
1570468231468.75,30.94,0,0,0,0,0
1570468231484.38,29.25,0,0,0,0,0
1570468231500,26.64,0,0,0,0,0
1570468231515.63,23.65,0,0,0,0,0
1570468231531.25,20.7,0,0,0,0,0
1570468231546.88,17.99,0,0,0,0,0
1570468231562.5,15.43,0,0,0,0,0
1570468231578.13,12.83,0,0,0,0,0
1570468231593.75,10.05,0,0,0,0,0
1570468231609.38,7.11,0,0,0,0,0
1570468231625,4.2,0,0,0,0,0
1570468231640.63,1.52,0,0,0,0,0
1570468231656.25,-0.87,0,0,0,0,0
1570468231671.88,-3.12,0,0,0,0,0
1570468231687.5,-5.53,0,0,0,0,0
1570468231703.13,-8.5,0,0,0,0,0
1570468231718.75,-12.37,0,0,0,0,0
1570468231734.38,-17.36,0,0,0,0,0
1570468231750,-23.44,0,0,0,0,0
1570468231765.63,-30.21,0,0,0,0,0
1570468231781.25,-36.93,0,0,0,0,0
1570468231796.88,-42.47,0,0,0,0,0
1570468231812.5,-45.64,0,0,0,0,0
1570468231828.13,-45.46,0,0,0,0,0
1570468231843.75,-41.57,0,0,0,0,0
1570468231859.38,-34.36,0,0,0,0,0
1570468231875,-24.9,0,0,0,0,0
1570468231890.63,-14.62,0,0,0,0,0
1570468231906.25,-4.84,0,0,0,0,0
1570468231921.88,3.48,0,0,0,0,0
1570468231937.5,9.89,0,0,0,0,0
1570468231953.13,14.34,0,0,0,0,0
1570468231968.75,16.96,0,0,0,0,0
1570468231984.38,17.95,0,0,0,0,0
1570468232000,17.53,0,0,0,0,0
1570468232015.63,16.01,0,0,0,0,0
1570468232031.25,13.82,0,0,0,0,0
1570468232046.88,11.36,0,0,0,0,0
1570468232062.5,8.99,0,0,0,0,0
1570468232078.13,6.84,0,0,0,0,0
1570468232093.75,4.85,0,0,0,0,0
1570468232109.38,2.92,0,0,0,0,0
1570468232125,1.05,0,0,0,0,0
1570468232140.63,-0.63,0,0,0,0,0
1570468232156.25,-1.83,0,0,0,0,0
1570468232171.88,-2.31,0,0,0,0,0
1570468232187.5,-2.04,0,0,0,0,0
1570468232203.13,-1.28,0,0,0,0,0
1570468232218.75,-0.53,0,0,0,0,0
1570468232234.38,-0.41,0,0,0,0,0
1570468232250,-1.47,0,0,0,0,0
1570468232265.63,-4.01,0,0,0,0,0
1570468232281.25,-7.96,0,0,0,0,0
1570468232296.88,-12.81,0,0,0,0,0
1570468232312.5,-17.64,0,0,0,0,0
1570468232328.13,-21.29,0,0,0,0,0
1570468232343.75,-22.64,0,0,0,0,0
1570468232359.38,-20.95,0,0,0,0,0
1570468232375,-16.13,0,0,0,0,0
1570468232390.63,-8.76,0,0,0,0,0
1570468232406.25,0.09,0,0,0,0,0
1570468232421.88,9.16,0,0,0,0,0
1570468232437.5,17.37,0,0,0,0,0
1570468232453.13,23.99,0,0,0,0,0
1570468232468.75,28.72,0,0,0,0,0
1570468232484.38,31.56,0,0,0,0,0
1570468232500,32.72,0,0,0,0,0
1570468232515.63,32.49,0,0,0,0,0
1570468232531.25,31.31,0,0,0,0,0
1570468232546.88,29.62,0,0,0,0,0
1570468232562.5,27.9,0,0,0,0,0
1570468232578.13,26.56,0,0,0,0,0
1570468232593.75,25.86,0,0,0,0,0
1570468232609.38,25.82,0,0,0,0,0
1570468232625,26.23,0,0,0,0,0
1570468232640.63,26.69,0,0,0,0,0
1570468232656.25,26.71,0,0,0,0,0
1570468232671.88,25.83,0,0,0,0,0
1570468232687.5,23.73,0,0,0,0,0
1570468232703.13,20.3,0,0,0,0,0
1570468232718.75,15.66,0,0,0,0,0
1570468232734.38,10.05,0,0,0,0,0
1570468232750,3.72,0,0,0,0,0
1570468232765.63,-3.15,0,0,0,0,0
1570468232781.25,-10.51,0,0,0,0,0
1570468232796.88,-18.33,0,0,0,0,0
1570468232812.5,-26.41,0,0,0,0,0
1570468232828.13,-34.21,0,0,0,0,0
1570468232843.75,-40.79,0,0,0,0,0
1570468232859.38,-45.01,0,0,0,0,0
1570468232875,-45.88,0,0,0,0,0
1570468232890.63,-42.99,0,0,0,0,0
1570468232906.25,-36.69,0,0,0,0,0
1570468232921.88,-28,0,0,0,0,0
1570468232937.5,-18.27,0,0,0,0,0
1570468232953.13,-8.7,0,0,0,0,0
1570468232968.75,-0.09,0,0,0,0,0
1570468232984.38,7.23,0,0,0,0,0
1570468233000,13.16,0,0,0,0,0
1570468233015.63,17.59,0,0,0,0,0
1570468233031.25,20.37,0,0,0,0,0
1570468233046.88,21.38,0,0,0,0,0
1570468233062.5,20.71,0,0,0,0,0
1570468233078.13,18.81,0,0,0,0,0
1570468233093.75,16.37,0,0,0,0,0
1570468233109.38,14.01,0,0,0,0,0
1570468233125,12.05,0,0,0,0,0
1570468233140.63,10.39,0,0,0,0,0
1570468233156.25,8.63,0,0,0,0,0
1570468233171.88,6.37,0,0,0,0,0
1570468233187.5,3.48,0,0,0,0,0
1570468233203.13,0.18,0,0,0,0,0
1570468233218.75,-3.11,0,0,0,0,0
1570468233234.38,-5.98,0,0,0,0,0
1570468233250,-8.23,0,0,0,0,0
1570468233265.63,-10.02,0,0,0,0,0
1570468233281.25,-11.72,0,0,0,0,0
1570468233296.88,-13.77,0,0,0,0,0
1570468233312.5,-16.57,0,0,0,0,0
1570468233328.13,-20.31,0,0,0,0,0
1570468233343.75,-24.91,0,0,0,0,0
1570468233359.38,-29.93,0,0,0,0,0
1570468233375,-34.51,0,0,0,0,0
1570468233390.63,-37.48,0,0,0,0,0
1570468233406.25,-37.54,0,0,0,0,0
1570468233421.88,-33.76,0,0,0,0,0
1570468233437.5,-25.95,0,0,0,0,0
1570468233453.13,-14.86,0,0,0,0,0
1570468233468.75,-2.06,0,0,0,0,0
1570468233484.38,10.53,0,0,0,0,0
1570468233500,21.33,0,0,0,0,0
1570468233515.63,29.41,0,0,0,0,0
1570468233531.25,34.71,0,0,0,0,0
1570468233546.88,37.68,0,0,0,0,0
1570468233562.5,38.92,0,0,0,0,0
1570468233578.13,38.9,0,0,0,0,0
1570468233593.75,37.83,0,0,0,0,0
1570468233609.38,35.98,0,0,0,0,0
1570468233625,33.83,0,0,0,0,0
1570468233640.63,32.17,0,0,0,0,0
1570468233656.25,31.83,0,0,0,0,0
1570468233671.88,33.28,0,0,0,0,0
1570468233687.5,36.23,0,0,0,0,0
1570468233703.13,39.59,0,0,0,0,0
1570468233718.75,41.81,0,0,0,0,0
1570468233734.38,41.48,0,0,0,0,0
1570468233750,37.87,0,0,0,0,0
1570468233765.63,31.12,0,0,0,0,0
1570468233781.25,22.08,0,0,0,0,0
1570468233796.88,11.87,0,0,0,0,0
1570468233812.5,1.36,0,0,0,0,0
1570468233828.13,-9.02,0,0,0,0,0
1570468233843.75,-19.28,0,0,0,0,0
1570468233859.38,-29.51,0,0,0,0,0
1570468233875,-39.57,0,0,0,0,0
1570468233890.63,-48.86,0,0,0,0,0
1570468233906.25,-56.25,0,0,0,0,0
1570468233921.88,-60.49,0,0,0,0,0
1570468233937.5,-60.55,0,0,0,0,0
1570468233953.13,-56.11,0,0,0,0,0
1570468233968.75,-47.76,0,0,0,0,0
1570468233984.38,-36.83,0,0,0,0,0
1570468234000,-25,0,0,0,0,0
1570468234015.63,-13.73,0,0,0,0,0
1570468234031.25,-3.86,0,0,0,0,0
1570468234046.88,4.4,0,0,0,0,0
1570468234062.5,11.23,0,0,0,0,0
1570468234078.13,16.79,0,0,0,0,0
1570468234093.75,20.99,0,0,0,0,0
1570468234109.38,23.57,0,0,0,0,0
1570468234125,24.37,0,0,0,0,0
1570468234140.63,23.59,0,0,0,0,0
1570468234156.25,21.91,0,0,0,0,0
1570468234171.88,20.25,0,0,0,0,0
1570468234187.5,19.4,0,0,0,0,0
1570468234203.13,19.69,0,0,0,0,0
1570468234218.75,20.89,0,0,0,0,0
1570468234234.38,22.42,0,0,0,0,0
1570468234250,23.58,0,0,0,0,0
1570468234265.63,23.84,0,0,0,0,0
1570468234281.25,22.98,0,0,0,0,0
1570468234296.88,21.03,0,0,0,0,0
1570468234312.5,18.08,0,0,0,0,0
1570468234328.13,14.24,0,0,0,0,0
1570468234343.75,9.47,0,0,0,0,0
1570468234359.38,3.66,0,0,0,0,0
1570468234375,-3.34,0,0,0,0,0
1570468234390.63,-11.71,0,0,0,0,0
1570468234406.25,-21.44,0,0,0,0,0
1570468234421.88,-32.26,0,0,0,0,0
1570468234437.5,-43.37,0,0,0,0,0
1570468234453.13,-53.45,0,0,0,0,0
1570468234468.75,-60.91,0,0,0,0,0
1570468234484.38,-64.26,0,0,0,0,0
1570468234500,-62.71,0,0,0,0,0
1570468234515.63,-56.42,0,0,0,0,0
1570468234531.25,-46.53,0,0,0,0,0
1570468234546.88,-34.72,0,0,0,0,0
1570468234562.5,-22.77,0,0,0,0,0
1570468234578.13,-12.06,0,0,0,0,0
1570468234593.75,-3.49,0,0,0,0,0
1570468234609.38,2.52,0,0,0,0,0
1570468234625,5.84,0,0,0,0,0
1570468234640.63,6.6,0,0,0,0,0
1570468234656.25,5.17,0,0,0,0,0
1570468234671.88,2.27,0,0,0,0,0
1570468234687.5,-1.18,0,0,0,0,0
1570468234703.13,-4.26,0,0,0,0,0
1570468234718.75,-6.45,0,0,0,0,0
1570468234734.38,-7.78,0,0,0,0,0
1570468234750,-8.74,0,0,0,0,0
1570468234765.63,-10,0,0,0,0,0
1570468234781.25,-12,0,0,0,0,0
1570468234796.88,-14.76,0,0,0,0,0
1570468234812.5,-17.91,0,0,0,0,0
1570468234828.13,-20.93,0,0,0,0,0
1570468234843.75,-23.48,0,0,0,0,0
1570468234859.38,-25.55,0,0,0,0,0
1570468234875,-27.43,0,0,0,0,0
1570468234890.63,-29.57,0,0,0,0,0
1570468234906.25,-32.41,0,0,0,0,0
1570468234921.88,-36.22,0,0,0,0,0
1570468234937.5,-41.02,0,0,0,0,0
1570468234953.13,-46.45,0,0,0,0,0
1570468234968.75,-51.67,0,0,0,0,0
1570468234984.38,-55.41,0,0,0,0,0
1570468235000,-56.19,0,0,0,0,0
1570468235015.63,-52.78,0,0,0,0,0
1570468235031.25,-44.65,0,0,0,0,0
1570468235046.88,-32.28,0,0,0,0,0
1570468235062.5,-17.11,0,0,0,0,0
1570468235078.13,-1.15,0,0,0,0,0
1570468235093.75,13.63,0,0,0,0,0
1570468235109.38,25.76,0,0,0,0,0
1570468235125,34.49,0,0,0,0,0
1570468235140.63,39.73,0,0,0,0,0
1570468235156.25,41.83,0,0,0,0,0
1570468235171.88,41.37,0,0,0,0,0
1570468235187.5,39.02,0,0,0,0,0
1570468235203.13,35.5,0,0,0,0,0
1570468235218.75,31.51,0,0,0,0,0
1570468235234.38,27.69,0,0,0,0,0
1570468235250,24.47,0,0,0,0,0
1570468235265.63,22.01,0,0,0,0,0
1570468235281.25,20.16,0,0,0,0,0
1570468235296.88,18.59,0,0,0,0,0
1570468235312.5,16.89,0,0,0,0,0
1570468235328.13,14.78,0,0,0,0,0
1570468235343.75,12.16,0,0,0,0,0
1570468235359.38,9.09,0,0,0,0,0
1570468235375,5.69,0,0,0,0,0
1570468235390.63,2.06,0,0,0,0,0
1570468235406.25,-1.88,0,0,0,0,0
1570468235421.88,-6.31,0,0,0,0,0
1570468235437.5,-11.51,0,0,0,0,0
1570468235453.13,-17.64,0,0,0,0,0
1570468235468.75,-24.52,0,0,0,0,0
1570468235484.38,-31.5,0,0,0,0,0
1570468235500,-37.49,0,0,0,0,0
1570468235515.63,-41.12,0,0,0,0,0
1570468235531.25,-41.2,0,0,0,0,0
1570468235546.88,-37.1,0,0,0,0,0
1570468235562.5,-29.06,0,0,0,0,0
1570468235578.13,-18.11,0,0,0,0,0
1570468235593.75,-5.79,0,0,0,0,0
1570468235609.38,6.34,0,0,0,0,0
1570468235625,17.04,0,0,0,0,0
1570468235640.63,25.56,0,0,0,0,0
1570468235656.25,31.55,0,0,0,0,0
1570468235671.88,34.92,0,0,0,0,0
1570468235687.5,35.71,0,0,0,0,0
1570468235703.13,34.19,0,0,0,0,0
1570468235718.75,30.87,0,0,0,0,0
1570468235734.38,26.49,0,0,0,0,0
1570468235750,21.91,0,0,0,0,0
1570468235765.63,17.84,0,0,0,0,0
1570468235781.25,14.61,0,0,0,0,0
1570468235796.88,12.1,0,0,0,0,0
1570468235812.5,9.89,0,0,0,0,0
1570468235828.13,7.52,0,0,0,0,0
1570468235843.75,4.7,0,0,0,0,0
1570468235859.38,1.48,0,0,0,0,0
1570468235875,-1.82,0,0,0,0,0
1570468235890.63,-4.83,0,0,0,0,0
1570468235906.25,-7.29,0,0,0,0,0
1570468235921.88,-9.25,0,0,0,0,0
1570468235937.5,-11.07,0,0,0,0,0
1570468235953.13,-13.26,0,0,0,0,0
1570468235968.75,-16.32,0,0,0,0,0
1570468235984.38,-20.56,0,0,0,0,0
1570468236000,-25.93,0,0,0,0,0
1570468236015.63,-31.97,0,0,0,0,0
1570468236031.25,-37.78,0,0,0,0,0
1570468236046.88,-42.17,0,0,0,0,0
1570468236062.5,-43.84,0,0,0,0,0
1570468236078.13,-41.85,0,0,0,0,0
1570468236093.75,-35.87,0,0,0,0,0
1570468236109.38,-26.44,0,0,0,0,0
1570468236125,-14.78,0,0,0,0,0
1570468236140.63,-2.47,0,0,0,0,0
1570468236156.25,9.06,0,0,0,0,0
1570468236171.88,18.88,0,0,0,0,0
1570468236187.5,26.58,0,0,0,0,0
1570468236203.13,32.11,0,0,0,0,0
1570468236218.75,35.52,0,0,0,0,0
1570468236234.38,36.77,0,0,0,0,0
1570468236250,35.8,0,0,0,0,0
1570468236265.63,32.69,0,0,0,0,0
1570468236281.25,27.9,0,0,0,0,0
1570468236296.88,22.21,0,0,0,0,0
1570468236312.5,16.57,0,0,0,0,0
1570468236328.13,11.82,0,0,0,0,0
1570468236343.75,8.37,0,0,0,0,0
1570468236359.38,6.12,0,0,0,0,0
1570468236375,4.55,0,0,0,0,0
1570468236390.63,2.9,0,0,0,0,0
1570468236406.25,0.48,0,0,0,0,0
1570468236421.88,-3.09,0,0,0,0,0
1570468236437.5,-7.75,0,0,0,0,0
1570468236453.13,-12.95,0,0,0,0,0
1570468236468.75,-17.9,0,0,0,0,0
1570468236484.38,-21.91,0,0,0,0,0
1570468236500,-24.69,0,0,0,0,0
1570468236515.63,-26.51,0,0,0,0,0
1570468236531.25,-28.13,0,0,0,0,0
1570468236546.88,-30.43,0,0,0,0,0
1570468236562.5,-33.95,0,0,0,0,0
1570468236578.13,-38.49,0,0,0,0,0
1570468236593.75,-42.99,0,0,0,0,0
1570468236609.38,-45.78,0,0,0,0,0
1570468236625,-45.23,0,0,0,0,0
1570468236640.63,-40.28,0,0,0,0,0
1570468236656.25,-30.89,0,0,0,0,0
1570468236671.88,-17.99,0,0,0,0,0
1570468236687.5,-3.1,0,0,0,0,0
1570468236703.13,12.22,0,0,0,0,0
1570468236718.75,26.69,0,0,0,0,0
1570468236734.38,39.46,0,0,0,0,0
1570468236750,50,0,0,0,0,0
1570468236765.63,57.96,0,0,0,0,0
1570468236781.25,63.2,0,0,0,0,0
1570468236796.88,65.83,0,0,0,0,0
1570468236812.5,66.24,0,0,0,0,0
1570468236828.13,65.04,0,0,0,0,0
1570468236843.75,62.69,0,0,0,0,0
1570468236859.38,59.34,0,0,0,0,0
1570468236875,54.69,0,0,0,0,0
1570468236890.63,48.32,0,0,0,0,0
1570468236906.25,40.01,0,0,0,0,0
1570468236921.88,30.07,0,0,0,0,0
1570468236937.5,19.31,0,0,0,0,0
1570468236953.13,8.85,0,0,0,0,0
1570468236968.75,-0.3,0,0,0,0,0
1570468236984.38,-7.58,0,0,0,0,0
1570468237000,-12.91,0,0,0,0,0
1570468237015.63,-16.68,0,0,0,0,0
1570468237031.25,-19.51,0,0,0,0,0
1570468237046.88,-22.11,0,0,0,0,0
1570468237062.5,-25.16,0,0,0,0,0
1570468237078.13,-29.25,0,0,0,0,0
1570468237093.75,-34.8,0,0,0,0,0
1570468237109.38,-41.86,0,0,0,0,0
1570468237125,-49.86,0,0,0,0,0
1570468237140.63,-57.53,0,0,0,0,0
1570468237156.25,-62.95,0,0,0,0,0
1570468237171.88,-64.13,0,0,0,0,0
1570468237187.5,-59.56,0,0,0,0,0
1570468237203.13,-48.84,0,0,0,0,0
1570468237218.75,-32.77,0,0,0,0,0
1570468237234.38,-13.09,0,0,0,0,0
1570468237250,8.08,0,0,0,0,0
1570468237265.63,28.71,0,0,0,0,0
1570468237281.25,47.09,0,0,0,0,0
1570468237296.88,61.7,0,0,0,0,0
1570468237312.5,71.16,0,0,0,0,0
1570468237328.13,74.26,0,0,0,0,0
1570468237343.75,70.39,0,0,0,0,0
1570468237359.38,59.89,0,0,0,0,0
1570468237375,44.21,0,0,0,0,0
1570468237390.63,25.63,0,0,0,0,0
1570468237406.25,6.59,0,0,0,0,0
1570468237421.88,-10.97,0,0,0,0,0
1570468237437.5,-25.99,0,0,0,0,0
1570468237453.13,-38.24,0,0,0,0,0
1570468237468.75,-47.96,0,0,0,0,0
1570468237484.38,-55.55,0,0,0,0,0
1570468237500,-61.2,0,0,0,0,0
1570468237515.63,-64.99,0,0,0,0,0
1570468237531.25,-67.02,0,0,0,0,0
1570468237546.88,-67.52,0,0,0,0,0
1570468237562.5,-66.92,0,0,0,0,0
1570468237578.13,-65.83,0,0,0,0,0
1570468237593.75,-64.9,0,0,0,0,0
1570468237609.38,-64.69,0,0,0,0,0
1570468237625,-65.59,0,0,0,0,0
1570468237640.63,-67.75,0,0,0,0,0
1570468237656.25,-70.96,0,0,0,0,0
1570468237671.88,-74.59,0,0,0,0,0
1570468237687.5,-77.49,0,0,0,0,0
1570468237703.13,-78.2,0,0,0,0,0
1570468237718.75,-75.34,0,0,0,0,0
1570468237734.38,-68.1,0,0,0,0,0
1570468237750,-56.56,0,0,0,0,0
1570468237765.63,-41.79,0,0,0,0,0
1570468237781.25,-25.45,0,0,0,0,0
1570468237796.88,-9.24,0,0,0,0,0
1570468237812.5,5.52,0,0,0,0,0
1570468237828.13,18.1,0,0,0,0,0
1570468237843.75,28.21,0,0,0,0,0
1570468237859.38,35.75,0,0,0,0,0
1570468237875,40.64,0,0,0,0,0
1570468237890.63,42.85,0,0,0,0,0
1570468237906.25,42.6,0,0,0,0,0
1570468237921.88,40.5,0,0,0,0,0
1570468237937.5,37.43,0,0,0,0,0
1570468237953.13,34.35,0,0,0,0,0
1570468237968.75,31.88,0,0,0,0,0
1570468237984.38,30.16,0,0,0,0,0
1570468238000,28.88,0,0,0,0,0
1570468238015.63,27.47,0,0,0,0,0
1570468238031.25,25.45,0,0,0,0,0
1570468238046.88,22.68,0,0,0,0,0
1570468238062.5,19.36,0,0,0,0,0
1570468238078.13,15.94,0,0,0,0,0
1570468238093.75,12.87,0,0,0,0,0
1570468238109.38,10.33,0,0,0,0,0
1570468238125,8.15,0,0,0,0,0
1570468238140.63,5.78,0,0,0,0,0
1570468238156.25,2.53,0,0,0,0,0
1570468238171.88,-2.2,0,0,0,0,0
1570468238187.5,-8.65,0,0,0,0,0
1570468238203.13,-16.46,0,0,0,0,0
1570468238218.75,-24.65,0,0,0,0,0
1570468238234.38,-31.77,0,0,0,0,0
1570468238250,-36.24,0,0,0,0,0
1570468238265.63,-36.8,0,0,0,0,0
1570468238281.25,-32.9,0,0,0,0,0
1570468238296.88,-24.86,0,0,0,0,0
1570468238312.5,-13.78,0,0,0,0,0
1570468238328.13,-1.14,0,0,0,0,0
1570468238343.75,11.64,0,0,0,0,0
1570468238359.38,23.47,0,0,0,0,0
1570468238375,33.74,0,0,0,0,0
1570468238390.63,42.14,0,0,0,0,0
1570468238406.25,48.45,0,0,0,0,0
1570468238421.88,52.47,0,0,0,0,0
1570468238437.5,53.97,0,0,0,0,0
1570468238453.13,52.94,0,0,0,0,0
1570468238468.75,49.7,0,0,0,0,0
1570468238484.38,44.94,0,0,0,0,0
1570468238500,39.49,0,0,0,0,0
1570468238515.63,34.08,0,0,0,0,0
1570468238531.25,29.09,0,0,0,0,0
1570468238546.88,24.48,0,0,0,0,0
1570468238562.5,19.96,0,0,0,0,0
1570468238578.13,15.26,0,0,0,0,0
1570468238593.75,10.44,0,0,0,0,0
1570468238609.38,6,0,0,0,0,0
1570468238625,2.67,0,0,0,0,0
1570468238640.63,1.14,0,0,0,0,0
1570468238656.25,1.71,0,0,0,0,0
1570468238671.88,4.11,0,0,0,0,0
1570468238687.5,7.37,0,0,0,0,0
1570468238703.13,9.99,0,0,0,0,0
1570468238718.75,10.16,0,0,0,0,0
1570468238734.38,6.23,0,0,0,0,0
1570468238750,-2.73,0,0,0,0,0
1570468238765.63,-16.32,0,0,0,0,0
1570468238781.25,-32.62,0,0,0,0,0
1570468238796.88,-48.53,0,0,0,0,0
1570468238812.5,-60.67,0,0,0,0,0
1570468238828.13,-66.49,0,0,0,0,0
1570468238843.75,-65.05,0,0,0,0,0
1570468238859.38,-57.16,0,0,0,0,0
1570468238875,-44.8,0,0,0,0,0
1570468238890.63,-30.24,0,0,0,0,0
1570468238906.25,-15.35,0,0,0,0,0
1570468238921.88,-1.36,0,0,0,0,0
1570468238937.5,10.87,0,0,0,0,0
1570468238953.13,20.57,0,0,0,0,0
1570468238968.75,26.98,0,0,0,0,0
1570468238984.38,29.54,0,0,0,0,0
1570468239000,28.26,0,0,0,0,0
1570468239015.63,23.89,0,0,0,0,0
1570468239031.25,17.7,0,0,0,0,0
1570468239046.88,11.04,0,0,0,0,0
1570468239062.5,4.95,0,0,0,0,0
1570468239078.13,-0.13,0,0,0,0,0
1570468239093.75,-4.22,0,0,0,0,0
1570468239109.38,-7.63,0,0,0,0,0
1570468239125,-10.68,0,0,0,0,0
1570468239140.63,-13.58,0,0,0,0,0
1570468239156.25,-16.46,0,0,0,0,0
1570468239171.88,-19.35,0,0,0,0,0
1570468239187.5,-22.28,0,0,0,0,0
1570468239203.13,-25.37,0,0,0,0,0
1570468239218.75,-28.84,0,0,0,0,0
1570468239234.38,-33.09,0,0,0,0,0
1570468239250,-38.71,0,0,0,0,0
1570468239265.63,-46.22,0,0,0,0,0
1570468239281.25,-55.75,0,0,0,0,0
1570468239296.88,-66.68,0,0,0,0,0
1570468239312.5,-77.5,0,0,0,0,0
1570468239328.13,-86.04,0,0,0,0,0
1570468239343.75,-90.12,0,0,0,0,0
1570468239359.38,-88.27,0,0,0,0,0
1570468239375,-80.26,0,0,0,0,0
1570468239390.63,-67.11,0,0,0,0,0
1570468239406.25,-50.69,0,0,0,0,0
1570468239421.88,-33,0,0,0,0,0
1570468239437.5,-15.68,0,0,0,0,0
1570468239453.13,0.26,0,0,0,0,0
1570468239468.75,14.23,0,0,0,0,0
1570468239484.38,25.89,0,0,0,0,0
1570468239500,34.88,0,0,0,0,0
1570468239515.63,40.92,0,0,0,0,0
1570468239531.25,44,0,0,0,0,0
1570468239546.88,44.5,0,0,0,0,0
1570468239562.5,43.16,0,0,0,0,0
1570468239578.13,40.87,0,0,0,0,0
1570468239593.75,38.4,0,0,0,0,0
1570468239609.38,36.13,0,0,0,0,0
1570468239625,34.06,0,0,0,0,0
1570468239640.63,31.97,0,0,0,0,0
1570468239656.25,29.67,0,0,0,0,0
1570468239671.88,27.15,0,0,0,0,0
1570468239687.5,24.68,0,0,0,0,0
1570468239703.13,22.65,0,0,0,0,0
1570468239718.75,21.33,0,0,0,0,0
1570468239734.38,20.66,0,0,0,0,0
1570468239750,20.2,0,0,0,0,0
1570468239765.63,19.22,0,0,0,0,0
1570468239781.25,16.81,0,0,0,0,0
1570468239796.88,12.13,0,0,0,0,0
1570468239812.5,4.64,0,0,0,0,0
1570468239828.13,-5.65,0,0,0,0,0
1570468239843.75,-17.92,0,0,0,0,0
1570468239859.38,-30.47,0,0,0,0,0
1570468239875,-40.92,0,0,0,0,0
1570468239890.63,-46.75,0,0,0,0,0
1570468239906.25,-46.14,0,0,0,0,0
1570468239921.88,-38.62,0,0,0,0,0
1570468239937.5,-25.32,0,0,0,0,0
1570468239953.13,-8.66,0,0,0,0,0
1570468239968.75,8.44,0,0,0,0,0
1570468239984.38,23.39,0,0,0,0,0
1570468240000,34.55,0,0,0,0,0
1570468240015.63,41.35,0,0,0,0,0
1570468240031.25,44.05,0,0,0,0,0
1570468240046.88,43.39,0,0,0,0,0
1570468240062.5,40.29,0,0,0,0,0
1570468240078.13,35.84,0,0,0,0,0
1570468240093.75,31.24,0,0,0,0,0
1570468240109.38,27.61,0,0,0,0,0
1570468240125,25.72,0,0,0,0,0
1570468240140.63,25.69,0,0,0,0,0
1570468240156.25,26.89,0,0,0,0,0
1570468240171.88,28.09,0,0,0,0,0
1570468240187.5,28.01,0,0,0,0,0
1570468240203.13,25.77,0,0,0,0,0
1570468240218.75,21.26,0,0,0,0,0
1570468240234.38,15.12,0,0,0,0,0
1570468240250,8.4,0,0,0,0,0
1570468240265.63,2.08,0,0,0,0,0
1570468240281.25,-3.25,0,0,0,0,0
1570468240296.88,-7.57,0,0,0,0,0
1570468240312.5,-11.29,0,0,0,0,0
1570468240328.13,-15.01,0,0,0,0,0
1570468240343.75,-19.27,0,0,0,0,0
1570468240359.38,-24.32,0,0,0,0,0
1570468240375,-29.97,0,0,0,0,0
1570468240390.63,-35.55,0,0,0,0,0
1570468240406.25,-39.96,0,0,0,0,0
1570468240421.88,-41.91,0,0,0,0,0
1570468240437.5,-40.4,0,0,0,0,0
1570468240453.13,-35.07,0,0,0,0,0
1570468240468.75,-26.41,0,0,0,0,0
1570468240484.38,-15.72,0,0,0,0,0
1570468240500,-4.59,0,0,0,0,0
1570468240515.63,5.6,0,0,0,0,0
1570468240531.25,14.01,0,0,0,0,0
1570468240546.88,20.45,0,0,0,0,0
1570468240562.5,25.11,0,0,0,0,0
1570468240578.13,28.27,0,0,0,0,0
1570468240593.75,30.1,0,0,0,0,0
1570468240609.38,30.61,0,0,0,0,0
1570468240625,29.88,0,0,0,0,0
1570468240640.63,28.15,0,0,0,0,0
1570468240656.25,25.83,0,0,0,0,0
1570468240671.88,23.37,0,0,0,0,0
1570468240687.5,21.06,0,0,0,0,0
1570468240703.13,18.92,0,0,0,0,0
1570468240718.75,16.78,0,0,0,0,0
1570468240734.38,14.36,0,0,0,0,0
1570468240750,11.55,0,0,0,0,0
1570468240765.63,8.35,0,0,0,0,0
1570468240781.25,4.96,0,0,0,0,0
1570468240796.88,1.58,0,0,0,0,0
1570468240812.5,-1.67,0,0,0,0,0
1570468240828.13,-4.85,0,0,0,0,0
1570468240843.75,-8.16,0,0,0,0,0
1570468240859.38,-11.93,0,0,0,0,0
1570468240875,-16.55,0,0,0,0,0
1570468240890.63,-22.36,0,0,0,0,0
1570468240906.25,-29.51,0,0,0,0,0
1570468240921.88,-37.77,0,0,0,0,0
1570468240937.5,-46.37,0,0,0,0,0
1570468240953.13,-54.04,0,0,0,0,0
1570468240968.75,-59.25,0,0,0,0,0
1570468240984.38,-60.74,0,0,0,0,0
1570468241000,-57.92,0,0,0,0,0
1570468241015.63,-51.09,0,0,0,0,0
1570468241031.25,-41.31,0,0,0,0,0
1570468241046.88,-30.05,0,0,0,0,0
1570468241062.5,-18.64,0,0,0,0,0
1570468241078.13,-7.97,0,0,0,0,0
1570468241093.75,1.53,0,0,0,0,0
1570468241109.38,9.73,0,0,0,0,0
1570468241125,16.63,0,0,0,0,0
1570468241140.63,22.2,0,0,0,0,0
1570468241156.25,26.5,0,0,0,0,0
1570468241171.88,29.71,0,0,0,0,0
1570468241187.5,32.19,0,0,0,0,0
1570468241203.13,34.38,0,0,0,0,0
1570468241218.75,36.54,0,0,0,0,0
1570468241234.38,38.72,0,0,0,0,0
1570468241250,40.65,0,0,0,0,0
1570468241265.63,41.94,0,0,0,0,0
1570468241281.25,42.38,0,0,0,0,0
1570468241296.88,42.01,0,0,0,0,0
1570468241312.5,41.2,0,0,0,0,0
1570468241328.13,40.42,0,0,0,0,0
1570468241343.75,39.96,0,0,0,0,0
1570468241359.38,39.73,0,0,0,0,0
1570468241375,39.28,0,0,0,0,0
1570468241390.63,37.99,0,0,0,0,0
1570468241406.25,35.36,0,0,0,0,0
1570468241421.88,31.31,0,0,0,0,0
1570468241437.5,26.29,0,0,0,0,0
1570468241453.13,21.17,0,0,0,0,0
1570468241468.75,17.13,0,0,0,0,0
1570468241484.38,15.3,0,0,0,0,0
1570468241500,16.51,0,0,0,0,0
1570468241515.63,21.09,0,0,0,0,0
1570468241531.25,28.76,0,0,0,0,0
1570468241546.88,38.67,0,0,0,0,0
1570468241562.5,49.6,0,0,0,0,0
1570468241578.13,60.18,0,0,0,0,0
1570468241593.75,69.13,0,0,0,0,0
1570468241609.38,75.52,0,0,0,0,0
1570468241625,78.73,0,0,0,0,0
1570468241640.63,78.51,0,0,0,0,0
1570468241656.25,74.93,0,0,0,0,0
1570468241671.88,68.42,0,0,0,0,0
1570468241687.5,59.75,0,0,0,0,0
1570468241703.13,49.95,0,0,0,0,0
1570468241718.75,40.06,0,0,0,0,0
1570468241734.38,30.75,0,0,0,0,0
1570468241750,22.15,0,0,0,0,0
1570468241765.63,13.89,0,0,0,0,0
1570468241781.25,5.4,0,0,0,0,0
1570468241796.88,-3.64,0,0,0,0,0
1570468241812.5,-12.95,0,0,0,0,0
1570468241828.13,-21.72,0,0,0,0,0
1570468241843.75,-28.97,0,0,0,0,0
1570468241859.38,-34.04,0,0,0,0,0
1570468241875,-36.96,0,0,0,0,0
1570468241890.63,-38.46,0,0,0,0,0
1570468241906.25,-39.6,0,0,0,0,0
1570468241921.88,-41.36,0,0,0,0,0
1570468241937.5,-44.23,0,0,0,0,0
1570468241953.13,-48.21,0,0,0,0,0
1570468241968.75,-52.98,0,0,0,0,0
1570468241984.38,-58.09,0,0,0,0,0
1570468242000,-63.06,0,0,0,0,0
1570468242015.63,-67.31,0,0,0,0,0
1570468242031.25,-70.1,0,0,0,0,0
1570468242046.88,-70.66,0,0,0,0,0
1570468242062.5,-68.29,0,0,0,0,0
1570468242078.13,-62.7,0,0,0,0,0
1570468242093.75,-54.16,0,0,0,0,0
1570468242109.38,-43.47,0,0,0,0,0
1570468242125,-31.73,0,0,0,0,0
1570468242140.63,-20.05,0,0,0,0,0
1570468242156.25,-9.22,0,0,0,0,0
1570468242171.88,0.38,0,0,0,0,0
1570468242187.5,8.75,0,0,0,0,0
1570468242203.13,16.04,0,0,0,0,0
1570468242218.75,22.39,0,0,0,0,0
1570468242234.38,27.74,0,0,0,0,0
1570468242250,31.89,0,0,0,0,0
1570468242265.63,34.57,0,0,0,0,0
1570468242281.25,35.68,0,0,0,0,0
1570468242296.88,35.32,0,0,0,0,0
1570468242312.5,33.84,0,0,0,0,0
1570468242328.13,31.69,0,0,0,0,0
1570468242343.75,29.27,0,0,0,0,0
1570468242359.38,26.8,0,0,0,0,0
1570468242375,24.28,0,0,0,0,0
1570468242390.63,21.6,0,0,0,0,0
1570468242406.25,18.61,0,0,0,0,0
1570468242421.88,15.17,0,0,0,0,0
1570468242437.5,11.17,0,0,0,0,0
1570468242453.13,6.53,0,0,0,0,0
1570468242468.75,1.17,0,0,0,0,0
1570468242484.38,-4.86,0,0,0,0,0
1570468242500,-11.27,0,0,0,0,0
1570468242515.63,-17.44,0,0,0,0,0
1570468242531.25,-22.43,0,0,0,0,0
1570468242546.88,-25.07,0,0,0,0,0
1570468242562.5,-24.37,0,0,0,0,0
1570468242578.13,-19.78,0,0,0,0,0
1570468242593.75,-11.59,0,0,0,0,0
1570468242609.38,-0.87,0,0,0,0,0
1570468242625,10.73,0,0,0,0,0
1570468242640.63,21.51,0,0,0,0,0
1570468242656.25,30.16,0,0,0,0,0
1570468242671.88,36.05,0,0,0,0,0
1570468242687.5,39.21,0,0,0,0,0
1570468242703.13,40.07,0,0,0,0,0
1570468242718.75,39.11,0,0,0,0,0
1570468242734.38,36.71,0,0,0,0,0
1570468242750,33.11,0,0,0,0,0
1570468242765.63,28.53,0,0,0,0,0
1570468242781.25,23.35,0,0,0,0,0
1570468242796.88,18.08,0,0,0,0,0
1570468242812.5,13.2,0,0,0,0,0
1570468242828.13,9.04,0,0,0,0,0
1570468242843.75,5.67,0,0,0,0,0
1570468242859.38,2.97,0,0,0,0,0
1570468242875,0.78,0,0,0,0,0
1570468242890.63,-0.92,0,0,0,0,0
1570468242906.25,-2.01,0,0,0,0,0
1570468242921.88,-2.34,0,0,0,0,0
1570468242937.5,-1.94,0,0,0,0,0
1570468242953.13,-1.18,0,0,0,0,0
1570468242968.75,-0.86,0,0,0,0,0
1570468242984.38,-1.98,0,0,0,0,0
1570468243000,-5.42,0,0,0,0,0
1570468243015.63,-11.61,0,0,0,0,0
1570468243031.25,-20.07,0,0,0,0,0
1570468243046.88,-29.43,0,0,0,0,0
1570468243062.5,-37.66,0,0,0,0,0
1570468243078.13,-42.69,0,0,0,0,0
1570468243093.75,-43.06,0,0,0,0,0
1570468243109.38,-38.47,0,0,0,0,0
1570468243125,-29.9,0,0,0,0,0
1570468243140.63,-19.25,0,0,0,0,0
1570468243156.25,-8.67,0,0,0,0,0
1570468243171.88,0.16,0,0,0,0,0
1570468243187.5,6.48,0,0,0,0,0
1570468243203.13,10.38,0,0,0,0,0
1570468243218.75,12.5,0,0,0,0,0
1570468243234.38,13.52,0,0,0,0,0
1570468243250,13.83,0,0,0,0,0
1570468243265.63,13.48,0,0,0,0,0
1570468243281.25,12.39,0,0,0,0,0
1570468243296.88,10.62,0,0,0,0,0
1570468243312.5,8.46,0,0,0,0,0
1570468243328.13,6.36,0,0,0,0,0
1570468243343.75,4.75,0,0,0,0,0
1570468243359.38,3.78,0,0,0,0,0
1570468243375,3.24,0,0,0,0,0
1570468243390.63,2.64,0,0,0,0,0
1570468243406.25,1.4,0,0,0,0,0
1570468243421.88,-0.96,0,0,0,0,0
1570468243437.5,-4.65,0,0,0,0,0
1570468243453.13,-9.66,0,0,0,0,0
1570468243468.75,-15.82,0,0,0,0,0
1570468243484.38,-22.92,0,0,0,0,0
1570468243500,-30.67,0,0,0,0,0
1570468243515.63,-38.71,0,0,0,0,0
1570468243531.25,-46.44,0,0,0,0,0
1570468243546.88,-53.02,0,0,0,0,0
1570468243562.5,-57.46,0,0,0,0,0
1570468243578.13,-58.88,0,0,0,0,0
1570468243593.75,-56.78,0,0,0,0,0
1570468243609.38,-51.3,0,0,0,0,0
1570468243625,-43.24,0,0,0,0,0
1570468243640.63,-33.79,0,0,0,0,0
1570468243656.25,-24.16,0,0,0,0,0
1570468243671.88,-15.16,0,0,0,0,0
1570468243687.5,-7.11,0,0,0,0,0
1570468243703.13,0.07,0,0,0,0,0
1570468243718.75,6.52,0,0,0,0,0
1570468243734.38,12.16,0,0,0,0,0
1570468243750,16.63,0,0,0,0,0
1570468243765.63,19.44,0,0,0,0,0
1570468243781.25,20.34,0,0,0,0,0
1570468243796.88,19.5,0,0,0,0,0
1570468243812.5,17.5,0,0,0,0,0
1570468243828.13,15.04,0,0,0,0,0
1570468243843.75,12.71,0,0,0,0,0
1570468243859.38,10.71,0,0,0,0,0
1570468243875,8.95,0,0,0,0,0
1570468243890.63,7.21,0,0,0,0,0
1570468243906.25,5.37,0,0,0,0,0
1570468243921.88,3.54,0,0,0,0,0
1570468243937.5,1.96,0,0,0,0,0
1570468243953.13,0.78,0,0,0,0,0
1570468243968.75,-0.07,0,0,0,0,0
1570468243984.38,-1,0,0,0,0,0
1570468244000,-2.57,0,0,0,0,0
1570468244015.63,-5.22,0,0,0,0,0
1570468244031.25,-8.95,0,0,0,0,0
1570468244046.88,-13.17,0,0,0,0,0
1570468244062.5,-16.78,0,0,0,0,0
1570468244078.13,-18.51,0,0,0,0,0
1570468244093.75,-17.34,0,0,0,0,0
1570468244109.38,-12.91,0,0,0,0,0
1570468244125,-5.62,0,0,0,0,0
1570468244140.63,3.56,0,0,0,0,0
1570468244156.25,13.43,0,0,0,0,0
1570468244171.88,22.9,0,0,0,0,0
1570468244187.5,31.14,0,0,0,0,0
1570468244203.13,37.68,0,0,0,0,0
1570468244218.75,42.28,0,0,0,0,0
1570468244234.38,44.88,0,0,0,0,0
1570468244250,45.57,0,0,0,0,0
1570468244265.63,44.57,0,0,0,0,0
1570468244281.25,42.18,0,0,0,0,0
1570468244296.88,38.79,0,0,0,0,0
1570468244312.5,34.83,0,0,0,0,0
1570468244328.13,30.71,0,0,0,0,0
1570468244343.75,26.8,0,0,0,0,0
1570468244359.38,23.38,0,0,0,0,0
1570468244375,20.65,0,0,0,0,0
1570468244390.63,18.62,0,0,0,0,0
1570468244406.25,17.19,0,0,0,0,0
1570468244421.88,16.14,0,0,0,0,0
1570468244437.5,15.21,0,0,0,0,0
1570468244453.13,14.09,0,0,0,0,0
1570468244468.75,12.41,0,0,0,0,0
1570468244484.38,9.72,0,0,0,0,0
1570468244500,5.59,0,0,0,0,0
1570468244515.63,-0.2,0,0,0,0,0
1570468244531.25,-7.28,0,0,0,0,0
1570468244546.88,-14.64,0,0,0,0,0
1570468244562.5,-20.76,0,0,0,0,0
1570468244578.13,-24.07,0,0,0,0,0
1570468244593.75,-23.56,0,0,0,0,0
1570468244609.38,-19.15,0,0,0,0,0
1570468244625,-11.67,0,0,0,0,0
1570468244640.63,-2.54,0,0,0,0,0
1570468244656.25,6.74,0,0,0,0,0
1570468244671.88,15.03,0,0,0,0,0
1570468244687.5,21.67,0,0,0,0,0
1570468244703.13,26.38,0,0,0,0,0
1570468244718.75,29.13,0,0,0,0,0
1570468244734.38,30.05,0,0,0,0,0
1570468244750,29.42,0,0,0,0,0
1570468244765.63,27.75,0,0,0,0,0
1570468244781.25,25.6,0,0,0,0,0
1570468244796.88,23.47,0,0,0,0,0
1570468244812.5,21.57,0,0,0,0,0
1570468244828.13,19.76,0,0,0,0,0
1570468244843.75,17.67,0,0,0,0,0
1570468244859.38,14.91,0,0,0,0,0
1570468244875,11.26,0,0,0,0,0
1570468244890.63,6.73,0,0,0,0,0
1570468244906.25,1.57,0,0,0,0,0
1570468244921.88,-3.8,0,0,0,0,0
1570468244937.5,-8.92,0,0,0,0,0
1570468244953.13,-13.42,0,0,0,0,0
1570468244968.75,-17.22,0,0,0,0,0
1570468244984.38,-20.67,0,0,0,0,0
1570468245000,-24.46,0,0,0,0,0
1570468245015.63,-29.4,0,0,0,0,0
1570468245031.25,-35.92,0,0,0,0,0
1570468245046.88,-43.65,0,0,0,0,0
1570468245062.5,-51.36,0,0,0,0,0
1570468245078.13,-57.21,0,0,0,0,0
1570468245093.75,-59.49,0,0,0,0,0
1570468245109.38,-57.27,0,0,0,0,0
1570468245125,-50.69,0,0,0,0,0
1570468245140.63,-40.89,0,0,0,0,0
1570468245156.25,-29.42,0,0,0,0,0
1570468245171.88,-17.77,0,0,0,0,0
1570468245187.5,-6.92,0,0,0,0,0
1570468245203.13,2.6,0,0,0,0,0
1570468245218.75,10.62,0,0,0,0,0
1570468245234.38,17.1,0,0,0,0,0
1570468245250,22.02,0,0,0,0,0
1570468245265.63,25.41,0,0,0,0,0
1570468245281.25,27.36,0,0,0,0,0
1570468245296.88,28,0,0,0,0,0
1570468245312.5,27.51,0,0,0,0,0
1570468245328.13,25.99,0,0,0,0,0
1570468245343.75,23.52,0,0,0,0,0
1570468245359.38,20.26,0,0,0,0,0
1570468245375,16.42,0,0,0,0,0
1570468245390.63,12.3,0,0,0,0,0
1570468245406.25,8.21,0,0,0,0,0
1570468245421.88,4.37,0,0,0,0,0
1570468245437.5,0.88,0,0,0,0,0
1570468245453.13,-2.27,0,0,0,0,0
1570468245468.75,-5.11,0,0,0,0,0
1570468245484.38,-7.78,0,0,0,0,0
1570468245500,-10.52,0,0,0,0,0
1570468245515.63,-13.61,0,0,0,0,0
1570468245531.25,-17.28,0,0,0,0,0
1570468245546.88,-21.42,0,0,0,0,0
1570468245562.5,-25.44,0,0,0,0,0
1570468245578.13,-28.26,0,0,0,0,0
1570468245593.75,-28.68,0,0,0,0,0
1570468245609.38,-25.86,0,0,0,0,0
1570468245625,-19.75,0,0,0,0,0
1570468245640.63,-11.18,0,0,0,0,0
1570468245656.25,-1.56,0,0,0,0,0
1570468245671.88,7.69,0,0,0,0,0
1570468245687.5,15.55,0,0,0,0,0
1570468245703.13,21.6,0,0,0,0,0
1570468245718.75,25.96,0,0,0,0,0
1570468245734.38,28.91,0,0,0,0,0
1570468245750,30.67,0,0,0,0,0
1570468245765.63,31.33,0,0,0,0,0
1570468245781.25,30.92,0,0,0,0,0
1570468245796.88,29.46,0,0,0,0,0
1570468245812.5,27.06,0,0,0,0,0
1570468245828.13,23.85,0,0,0,0,0
1570468245843.75,19.93,0,0,0,0,0
1570468245859.38,15.38,0,0,0,0,0
1570468245875,10.32,0,0,0,0,0
1570468245890.63,4.9,0,0,0,0,0
1570468245906.25,-0.64,0,0,0,0,0
1570468245921.88,-6.11,0,0,0,0,0
1570468245937.5,-11.38,0,0,0,0,0
1570468245953.13,-16.47,0,0,0,0,0
1570468245968.75,-21.5,0,0,0,0,0
1570468245984.38,-26.65,0,0,0,0,0
1570468246000,-32.07,0,0,0,0,0
1570468246015.63,-37.9,0,0,0,0,0
1570468246031.25,-44.24,0,0,0,0,0
1570468246046.88,-51.02,0,0,0,0,0
1570468246062.5,-57.87,0,0,0,0,0
1570468246078.13,-64.01,0,0,0,0,0
1570468246093.75,-68.36,0,0,0,0,0
1570468246109.38,-69.82,0,0,0,0,0
1570468246125,-67.75,0,0,0,0,0
1570468246140.63,-62.19,0,0,0,0,0
1570468246156.25,-53.97,0,0,0,0,0
1570468246171.88,-44.53,0,0,0,0,0
1570468246187.5,-35.37,0,0,0,0,0
1570468246203.13,-27.74,0,0,0,0,0
1570468246218.75,-22.4,0,0,0,0,0
1570468246234.38,-19.62,0,0,0,0,0
1570468246250,-19.28,0,0,0,0,0
1570468246265.63,-21.02,0,0,0,0,0
1570468246281.25,-24.25,0,0,0,0,0
1570468246296.88,-28.14,0,0,0,0,0
1570468246312.5,-31.64,0,0,0,0,0
1570468246328.13,-33.71,0,0,0,0,0
1570468246343.75,-33.51,0,0,0,0,0
1570468246359.38,-30.69,0,0,0,0,0
1570468246375,-25.46,0,0,0,0,0
1570468246390.63,-18.55,0,0,0,0,0
1570468246406.25,-11.01,0,0,0,0,0
1570468246421.88,-3.85,0,0,0,0,0
1570468246437.5,2.12,0,0,0,0,0
1570468246453.13,6.5,0,0,0,0,0
1570468246468.75,9.28,0,0,0,0,0
1570468246484.38,10.71,0,0,0,0,0
1570468246500,11.15,0,0,0,0,0
1570468246515.63,10.92,0,0,0,0,0
1570468246531.25,10.28,0,0,0,0,0
1570468246546.88,9.38,0,0,0,0,0
1570468246562.5,8.4,0,0,0,0,0
1570468246578.13,7.62,0,0,0,0,0
1570468246593.75,7.47,0,0,0,0,0
1570468246609.38,8.45,0,0,0,0,0
1570468246625,10.94,0,0,0,0,0
1570468246640.63,15.09,0,0,0,0,0
1570468246656.25,20.56,0,0,0,0,0
1570468246671.88,26.64,0,0,0,0,0
1570468246687.5,32.36,0,0,0,0,0
1570468246703.13,36.9,0,0,0,0,0
1570468246718.75,39.86,0,0,0,0,0
1570468246734.38,41.43,0,0,0,0,0
1570468246750,42.29,0,0,0,0,0
1570468246765.63,43.32,0,0,0,0,0
1570468246781.25,45.17,0,0,0,0,0
1570468246796.88,48.09,0,0,0,0,0
1570468246812.5,51.88,0,0,0,0,0
1570468246828.13,56.05,0,0,0,0,0
1570468246843.75,60.05,0,0,0,0,0
1570468246859.38,63.46,0,0,0,0,0
1570468246875,65.95,0,0,0,0,0
1570468246890.63,67.22,0,0,0,0,0
1570468246906.25,66.93,0,0,0,0,0
1570468246921.88,64.74,0,0,0,0,0
1570468246937.5,60.49,0,0,0,0,0
1570468246953.13,54.3,0,0,0,0,0
1570468246968.75,46.66,0,0,0,0,0
1570468246984.38,38.4,0,0,0,0,0
1570468247000,30.47,0,0,0,0,0
1570468247015.63,23.74,0,0,0,0,0
1570468247031.25,18.82,0,0,0,0,0
1570468247046.88,15.96,0,0,0,0,0
1570468247062.5,14.96,0,0,0,0,0
1570468247078.13,15.21,0,0,0,0,0
1570468247093.75,15.84,0,0,0,0,0
1570468247109.38,15.87,0,0,0,0,0
1570468247125,14.58,0,0,0,0,0
1570468247140.63,11.67,0,0,0,0,0
1570468247156.25,7.43,0,0,0,0,0
1570468247171.88,2.75,0,0,0,0,0
1570468247187.5,-1.23,0,0,0,0,0
1570468247203.13,-3.39,0,0,0,0,0
1570468247218.75,-3.06,0,0,0,0,0
1570468247234.38,-0.23,0,0,0,0,0
1570468247250,4.48,0,0,0,0,0
1570468247265.63,10,0,0,0,0,0
1570468247281.25,15.16,0,0,0,0,0
1570468247296.88,19.01,0,0,0,0,0
1570468247312.5,20.96,0,0,0,0,0
1570468247328.13,20.88,0,0,0,0,0
1570468247343.75,19.02,0,0,0,0,0
1570468247359.38,15.83,0,0,0,0,0
1570468247375,11.9,0,0,0,0,0
1570468247390.63,7.81,0,0,0,0,0
1570468247406.25,3.99,0,0,0,0,0
1570468247421.88,0.64,0,0,0,0,0
1570468247437.5,-2.27,0,0,0,0,0
1570468247453.13,-4.93,0,0,0,0,0
1570468247468.75,-7.45,0,0,0,0,0
1570468247484.38,-9.72,0,0,0,0,0
1570468247500,-11.38,0,0,0,0,0
1570468247515.63,-11.96,0,0,0,0,0
1570468247531.25,-11.16,0,0,0,0,0
1570468247546.88,-9.11,0,0,0,0,0
1570468247562.5,-6.37,0,0,0,0,0
1570468247578.13,-3.8,0,0,0,0,0
1570468247593.75,-2.28,0,0,0,0,0
1570468247609.38,-2.47,0,0,0,0,0
1570468247625,-4.72,0,0,0,0,0
1570468247640.63,-8.96,0,0,0,0,0
1570468247656.25,-14.78,0,0,0,0,0
1570468247671.88,-21.34,0,0,0,0,0
1570468247687.5,-27.5,0,0,0,0,0
1570468247703.13,-31.95,0,0,0,0,0
1570468247718.75,-33.6,0,0,0,0,0
1570468247734.38,-32.03,0,0,0,0,0
1570468247750,-27.65,0,0,0,0,0
1570468247765.63,-21.7,0,0,0,0,0
1570468247781.25,-15.78,0,0,0,0,0
1570468247796.88,-11.31,0,0,0,0,0
1570468247812.5,-9.13,0,0,0,0,0
1570468247828.13,-9.29,0,0,0,0,0
1570468247843.75,-11.24,0,0,0,0,0
1570468247859.38,-14.06,0,0,0,0,0
1570468247875,-16.81,0,0,0,0,0
1570468247890.63,-18.67,0,0,0,0,0
1570468247906.25,-19.03,0,0,0,0,0
1570468247921.88,-17.49,0,0,0,0,0
1570468247937.5,-13.89,0,0,0,0,0
1570468247953.13,-8.36,0,0,0,0,0
1570468247968.75,-1.35,0,0,0,0,0
1570468247984.38,6.32,0,0,0,0,0
1570468248000,13.6,0,0,0,0,0
1570468248015.63,19.35,0,0,0,0,0
1570468248031.25,22.64,0,0,0,0,0
1570468248046.88,22.99,0,0,0,0,0
1570468248062.5,20.45,0,0,0,0,0
1570468248078.13,15.56,0,0,0,0,0
1570468248093.75,9.03,0,0,0,0,0
1570468248109.38,1.47,0,0,0,0,0
1570468248125,-6.72,0,0,0,0,0
1570468248140.63,-15.21,0,0,0,0,0
1570468248156.25,-23.56,0,0,0,0,0
1570468248171.88,-30.99,0,0,0,0,0
1570468248187.5,-36.51,0,0,0,0,0
1570468248203.13,-39.27,0,0,0,0,0
1570468248218.75,-38.97,0,0,0,0,0
1570468248234.38,-36.03,0,0,0,0,0
1570468248250,-31.49,0,0,0,0,0
1570468248265.63,-26.61,0,0,0,0,0
1570468248281.25,-22.45,0,0,0,0,0
1570468248296.88,-19.61,0,0,0,0,0
1570468248312.5,-18.24,0,0,0,0,0
1570468248328.13,-18.25,0,0,0,0,0
1570468248343.75,-19.54,0,0,0,0,0
1570468248359.38,-22.08,0,0,0,0,0
1570468248375,-25.76,0,0,0,0,0
1570468248390.63,-30.32,0,0,0,0,0
1570468248406.25,-35.14,0,0,0,0,0
1570468248421.88,-39.37,0,0,0,0,0
1570468248437.5,-42.08,0,0,0,0,0
1570468248453.13,-42.56,0,0,0,0,0
1570468248468.75,-40.51,0,0,0,0,0
1570468248484.38,-36.14,0,0,0,0,0
1570468248500,-30.16,0,0,0,0,0
1570468248515.63,-23.62,0,0,0,0,0
1570468248531.25,-17.77,0,0,0,0,0
1570468248546.88,-13.79,0,0,0,0,0
1570468248562.5,-12.69,0,0,0,0,0
1570468248578.13,-15.06,0,0,0,0,0
1570468248593.75,-20.83,0,0,0,0,0
1570468248609.38,-29.21,0,0,0,0,0
1570468248625,-38.68,0,0,0,0,0
1570468248640.63,-47.32,0,0,0,0,0
1570468248656.25,-53.34,0,0,0,0,0
1570468248671.88,-55.61,0,0,0,0,0
1570468248687.5,-53.98,0,0,0,0,0
1570468248703.13,-49.23,0,0,0,0,0
1570468248718.75,-42.75,0,0,0,0,0
1570468248734.38,-35.87,0,0,0,0,0
1570468248750,-29.47,0,0,0,0,0
1570468248765.63,-23.79,0,0,0,0,0
1570468248781.25,-18.52,0,0,0,0,0
1570468248796.88,-13.07,0,0,0,0,0
1570468248812.5,-6.94,0,0,0,0,0
1570468248828.13,0.17,0,0,0,0,0
1570468248843.75,8.26,0,0,0,0,0
1570468248859.38,17.05,0,0,0,0,0
1570468248875,26.11,0,0,0,0,0
1570468248890.63,34.86,0,0,0,0,0
1570468248906.25,42.7,0,0,0,0,0
1570468248921.88,49.11,0,0,0,0,0
1570468248937.5,53.66,0,0,0,0,0
1570468248953.13,56.07,0,0,0,0,0
1570468248968.75,56.29,0,0,0,0,0
1570468248984.38,54.42,0,0,0,0,0
1570468249000,50.76,0,0,0,0,0
1570468249015.63,45.77,0,0,0,0,0
1570468249031.25,40.02,0,0,0,0,0
1570468249046.88,34.11,0,0,0,0,0
1570468249062.5,28.56,0,0,0,0,0
1570468249078.13,23.71,0,0,0,0,0
1570468249093.75,19.72,0,0,0,0,0
1570468249109.38,16.52,0,0,0,0,0
1570468249125,13.87,0,0,0,0,0
1570468249140.63,11.44,0,0,0,0,0
1570468249156.25,8.89,0,0,0,0,0
1570468249171.88,5.97,0,0,0,0,0
1570468249187.5,2.6,0,0,0,0,0
1570468249203.13,-1.07,0,0,0,0,0
1570468249218.75,-4.8,0,0,0,0,0
1570468249234.38,-8.28,0,0,0,0,0
1570468249250,-11.32,0,0,0,0,0
1570468249265.63,-13.89,0,0,0,0,0
1570468249281.25,-16.09,0,0,0,0,0
1570468249296.88,-18.04,0,0,0,0,0
1570468249312.5,-19.82,0,0,0,0,0
1570468249328.13,-21.42,0,0,0,0,0
1570468249343.75,-22.78,0,0,0,0,0
1570468249359.38,-23.91,0,0,0,0,0
1570468249375,-24.88,0,0,0,0,0
1570468249390.63,-25.81,0,0,0,0,0
1570468249406.25,-26.81,0,0,0,0,0
1570468249421.88,-27.87,0,0,0,0,0
1570468249437.5,-28.85,0,0,0,0,0
1570468249453.13,-29.48,0,0,0,0,0
1570468249468.75,-29.53,0,0,0,0,0
1570468249484.38,-28.91,0,0,0,0,0
1570468249500,-27.66,0,0,0,0,0
1570468249515.63,-25.82,0,0,0,0,0
1570468249531.25,-23.27,0,0,0,0,0
1570468249546.88,-19.61,0,0,0,0,0
1570468249562.5,-14.19,0,0,0,0,0
1570468249578.13,-6.43,0,0,0,0,0
1570468249593.75,3.78,0,0,0,0,0
1570468249609.38,15.83,0,0,0,0,0
1570468249625,28.33,0,0,0,0,0
1570468249640.63,39.56,0,0,0,0,0
1570468249656.25,47.95,0,0,0,0,0
1570468249671.88,52.54,0,0,0,0,0
1570468249687.5,53.28,0,0,0,0,0
1570468249703.13,50.83,0,0,0,0,0
1570468249718.75,46.3,0,0,0,0,0
1570468249734.38,40.86,0,0,0,0,0
1570468249750,35.52,0,0,0,0,0
1570468249765.63,30.97,0,0,0,0,0
1570468249781.25,27.59,0,0,0,0,0
1570468249796.88,25.37,0,0,0,0,0
1570468249812.5,23.96,0,0,0,0,0
1570468249828.13,22.65,0,0,0,0,0
1570468249843.75,20.67,0,0,0,0,0
1570468249859.38,17.33,0,0,0,0,0
1570468249875,12.31,0,0,0,0,0
1570468249890.63,5.75,0,0,0,0,0
1570468249906.25,-1.81,0,0,0,0,0
1570468249921.88,-9.7,0,0,0,0,0
1570468249937.5,-17.3,0,0,0,0,0
1570468249953.13,-24.26,0,0,0,0,0
1570468249968.75,-30.55,0,0,0,0,0
1570468249984.38,-36.36,0,0,0,0,0
1570468250000,-41.93,0,0,0,0,0
1570468250015.63,-47.28,0,0,0,0,0
1570468250031.25,-52.09,0,0,0,0,0
1570468250046.88,-55.7,0,0,0,0,0
1570468250062.5,-57.32,0,0,0,0,0
1570468250078.13,-56.31,0,0,0,0,0
1570468250093.75,-52.46,0,0,0,0,0
1570468250109.38,-46.12,0,0,0,0,0
1570468250125,-38.12,0,0,0,0,0
1570468250140.63,-29.53,0,0,0,0,0
1570468250156.25,-21.37,0,0,0,0,0
1570468250171.88,-14.36,0,0,0,0,0
1570468250187.5,-8.8,0,0,0,0,0
1570468250203.13,-4.65,0,0,0,0,0
1570468250218.75,-1.55,0,0,0,0,0
1570468250234.38,0.96,0,0,0,0,0
1570468250250,3.44,0,0,0,0,0
1570468250265.63,6.4,0,0,0,0,0
1570468250281.25,10.25,0,0,0,0,0
1570468250296.88,15.17,0,0,0,0,0
1570468250312.5,21.04,0,0,0,0,0
1570468250328.13,27.35,0,0,0,0,0
1570468250343.75,33.3,0,0,0,0,0
1570468250359.38,37.98,0,0,0,0,0
1570468250375,40.53,0,0,0,0,0
1570468250390.63,40.41,0,0,0,0,0
1570468250406.25,37.5,0,0,0,0,0
1570468250421.88,32.07,0,0,0,0,0
1570468250437.5,24.82,0,0,0,0,0
1570468250453.13,16.81,0,0,0,0,0
1570468250468.75,9.45,0,0,0,0,0
1570468250484.38,4.3,0,0,0,0,0
1570468250500,2.87,0,0,0,0,0
1570468250515.63,6.14,0,0,0,0,0
1570468250531.25,14.21,0,0,0,0,0
1570468250546.88,26.16,0,0,0,0,0
1570468250562.5,40.3,0,0,0,0,0
1570468250578.13,54.67,0,0,0,0,0
1570468250593.75,67.63,0,0,0,0,0
1570468250609.38,78.22,0,0,0,0,0
1570468250625,86.12,0,0,0,0,0
1570468250640.63,91.41,0,0,0,0,0
1570468250656.25,94.2,0,0,0,0,0
1570468250671.88,94.42,0,0,0,0,0
1570468250687.5,91.9,0,0,0,0,0
1570468250703.13,86.61,0,0,0,0,0
1570468250718.75,78.83,0,0,0,0,0
1570468250734.38,69.27,0,0,0,0,0
1570468250750,58.92,0,0,0,0,0
1570468250765.63,48.87,0,0,0,0,0
1570468250781.25,40.1,0,0,0,0,0
1570468250796.88,33.29,0,0,0,0,0
1570468250812.5,28.72,0,0,0,0,0
1570468250828.13,26.22,0,0,0,0,0
1570468250843.75,25.16,0,0,0,0,0
1570468250859.38,24.56,0,0,0,0,0
1570468250875,23.25,0,0,0,0,0
1570468250890.63,20.05,0,0,0,0,0
1570468250906.25,14.06,0,0,0,0,0
1570468250921.88,4.97,0,0,0,0,0
1570468250937.5,-6.76,0,0,0,0,0
1570468250953.13,-19.83,0,0,0,0,0
1570468250968.75,-32.24,0,0,0,0,0
1570468250984.38,-41.74,0,0,0,0,0
1570468251000,-46.36,0,0,0,0,0
1570468251015.63,-45.02,0,0,0,0,0
1570468251031.25,-37.84,0,0,0,0,0
1570468251046.88,-26.13,0,0,0,0,0
1570468251062.5,-12.02,0,0,0,0,0
1570468251078.13,2.24,0,0,0,0,0
1570468251093.75,14.8,0,0,0,0,0
1570468251109.38,24.62,0,0,0,0,0
1570468251125,31.37,0,0,0,0,0
1570468251140.63,35.23,0,0,0,0,0
1570468251156.25,36.52,0,0,0,0,0
1570468251171.88,35.5,0,0,0,0,0
1570468251187.5,32.41,0,0,0,0,0
1570468251203.13,27.58,0,0,0,0,0
1570468251218.75,21.58,0,0,0,0,0
1570468251234.38,15.17,0,0,0,0,0
1570468251250,9.1,0,0,0,0,0
1570468251265.63,3.86,0,0,0,0,0
1570468251281.25,-0.51,0,0,0,0,0
1570468251296.88,-4.38,0,0,0,0,0
1570468251312.5,-8.33,0,0,0,0,0
1570468251328.13,-12.84,0,0,0,0,0
1570468251343.75,-18.08,0,0,0,0,0
1570468251359.38,-23.89,0,0,0,0,0
1570468251375,-29.87,0,0,0,0,0
1570468251390.63,-35.48,0,0,0,0,0
1570468251406.25,-40.22,0,0,0,0,0
1570468251421.88,-43.58,0,0,0,0,0
1570468251437.5,-45.07,0,0,0,0,0
1570468251453.13,-44.23,0,0,0,0,0
1570468251468.75,-40.72,0,0,0,0,0
1570468251484.38,-34.48,0,0,0,0,0
1570468251500,-25.74,0,0,0,0,0
1570468251515.63,-15.04,0,0,0,0,0
1570468251531.25,-3.14,0,0,0,0,0
1570468251546.88,9.15,0,0,0,0,0
1570468251562.5,20.97,0,0,0,0,0
1570468251578.13,31.36,0,0,0,0,0
1570468251593.75,39.14,0,0,0,0,0
1570468251609.38,42.96,0,0,0,0,0
1570468251625,41.56,0,0,0,0,0
1570468251640.63,34.18,0,0,0,0,0
1570468251656.25,21.02,0,0,0,0,0
1570468251671.88,3.5,0,0,0,0,0
1570468251687.5,-16.01,0,0,0,0,0
1570468251703.13,-34.72,0,0,0,0,0
1570468251718.75,-50.27,0,0,0,0,0
1570468251734.38,-61.34,0,0,0,0,0
1570468251750,-67.87,0,0,0,0,0
1570468251765.63,-70.85,0,0,0,0,0
1570468251781.25,-71.79,0,0,0,0,0
1570468251796.88,-72.12,0,0,0,0,0
1570468251812.5,-72.81,0,0,0,0,0
1570468251828.13,-74.24,0,0,0,0,0
1570468251843.75,-76.18,0,0,0,0,0
1570468251859.38,-77.95,0,0,0,0,0
1570468251875,-78.58,0,0,0,0,0
1570468251890.63,-76.98,0,0,0,0,0
1570468251906.25,-72.19,0,0,0,0,0
1570468251921.88,-63.72,0,0,0,0,0
1570468251937.5,-51.69,0,0,0,0,0
1570468251953.13,-36.89,0,0,0,0,0
1570468251968.75,-20.56,0,0,0,0,0
1570468251984.38,-4.13,0,0,0,0,0
1570468252000,11.19,0,0,0,0,0
1570468252015.63,24.49,0,0,0,0,0
1570468252031.25,35.21,0,0,0,0,0
1570468252046.88,43.1,0,0,0,0,0
1570468252062.5,48.05,0,0,0,0,0
1570468252078.13,50.19,0,0,0,0,0
1570468252093.75,49.92,0,0,0,0,0
1570468252109.38,47.99,0,0,0,0,0
1570468252125,45.41,0,0,0,0,0
1570468252140.63,43.26,0,0,0,0,0
1570468252156.25,42.36,0,0,0,0,0
1570468252171.88,42.99,0,0,0,0,0
1570468252187.5,44.84,0,0,0,0,0
1570468252203.13,47.11,0,0,0,0,0
1570468252218.75,48.9,0,0,0,0,0
1570468252234.38,49.49,0,0,0,0,0
1570468252250,48.5,0,0,0,0,0
1570468252265.63,45.95,0,0,0,0,0
1570468252281.25,42.05,0,0,0,0,0
1570468252296.88,37.14,0,0,0,0,0
1570468252312.5,31.68,0,0,0,0,0
1570468252328.13,26.2,0,0,0,0,0
1570468252343.75,21.32,0,0,0,0,0
1570468252359.38,17.61,0,0,0,0,0
1570468252375,15.35,0,0,0,0,0
1570468252390.63,14.36,0,0,0,0,0
1570468252406.25,14.06,0,0,0,0,0
1570468252421.88,13.63,0,0,0,0,0
1570468252437.5,12.32,0,0,0,0,0
1570468252453.13,9.76,0,0,0,0,0
1570468252468.75,6.07,0,0,0,0,0
1570468252484.38,1.69,0,0,0,0,0
1570468252500,-2.74,0,0,0,0,0
1570468252515.63,-6.75,0,0,0,0,0
1570468252531.25,-10.09,0,0,0,0,0
1570468252546.88,-12.83,0,0,0,0,0
1570468252562.5,-15.18,0,0,0,0,0
1570468252578.13,-17.32,0,0,0,0,0
1570468252593.75,-19.35,0,0,0,0,0
1570468252609.38,-21.26,0,0,0,0,0
1570468252625,-23.1,0,0,0,0,0
1570468252640.63,-25.11,0,0,0,0,0
1570468252656.25,-27.72,0,0,0,0,0
1570468252671.88,-31.48,0,0,0,0,0
1570468252687.5,-36.78,0,0,0,0,0
1570468252703.13,-43.7,0,0,0,0,0
1570468252718.75,-51.92,0,0,0,0,0
1570468252734.38,-60.65,0,0,0,0,0
1570468252750,-68.85,0,0,0,0,0
1570468252765.63,-75.28,0,0,0,0,0
1570468252781.25,-78.74,0,0,0,0,0
1570468252796.88,-78.39,0,0,0,0,0
1570468252812.5,-74,0,0,0,0,0
1570468252828.13,-66.11,0,0,0,0,0
1570468252843.75,-55.88,0,0,0,0,0
1570468252859.38,-44.82,0,0,0,0,0
1570468252875,-34.2,0,0,0,0,0
1570468252890.63,-24.8,0,0,0,0,0
1570468252906.25,-16.84,0,0,0,0,0
1570468252921.88,-10.27,0,0,0,0,0
1570468252937.5,-5.04,0,0,0,0,0
1570468252953.13,-1.33,0,0,0,0,0
1570468252968.75,0.58,0,0,0,0,0
1570468252984.38,0.5,0,0,0,0,0
1570468253000,-1.38,0,0,0,0,0
1570468253015.63,-4.55,0,0,0,0,0
1570468253031.25,-8.3,0,0,0,0,0
1570468253046.88,-12.03,0,0,0,0,0
1570468253062.5,-15.36,0,0,0,0,0
1570468253078.13,-18.16,0,0,0,0,0
1570468253093.75,-20.44,0,0,0,0,0
1570468253109.38,-22.26,0,0,0,0,0
1570468253125,-23.65,0,0,0,0,0
1570468253140.63,-24.69,0,0,0,0,0
1570468253156.25,-25.57,0,0,0,0,0
1570468253171.88,-26.48,0,0,0,0,0
1570468253187.5,-27.52,0,0,0,0,0
1570468253203.13,-28.58,0,0,0,0,0
1570468253218.75,-29.29,0,0,0,0,0
1570468253234.38,-29.1,0,0,0,0,0
1570468253250,-27.5,0,0,0,0,0
1570468253265.63,-24.25,0,0,0,0,0
1570468253281.25,-19.44,0,0,0,0,0
1570468253296.88,-13.57,0,0,0,0,0
1570468253312.5,-7.35,0,0,0,0,0
1570468253328.13,-1.66,0,0,0,0,0
1570468253343.75,2.72,0,0,0,0,0
1570468253359.38,5.12,0,0,0,0,0
1570468253375,5.17,0,0,0,0,0
1570468253390.63,2.83,0,0,0,0,0
1570468253406.25,-1.55,0,0,0,0,0
1570468253421.88,-7.35,0,0,0,0,0
1570468253437.5,-13.72,0,0,0,0,0
1570468253453.13,-19.91,0,0,0,0,0
1570468253468.75,-25.31,0,0,0,0,0
1570468253484.38,-29.58,0,0,0,0,0
1570468253500,-32.55,0,0,0,0,0
1570468253515.63,-34.2,0,0,0,0,0
1570468253531.25,-34.55,0,0,0,0,0
1570468253546.88,-33.82,0,0,0,0,0
1570468253562.5,-32.53,0,0,0,0,0
1570468253578.13,-31.58,0,0,0,0,0
1570468253593.75,-32.09,0,0,0,0,0
1570468253609.38,-35.02,0,0,0,0,0
1570468253625,-40.68,0,0,0,0,0
1570468253640.63,-48.44,0,0,0,0,0
1570468253656.25,-56.79,0,0,0,0,0
1570468253671.88,-63.7,0,0,0,0,0
1570468253687.5,-67.23,0,0,0,0,0
1570468253703.13,-66.05,0,0,0,0,0
1570468253718.75,-59.82,0,0,0,0,0
1570468253734.38,-49.09,0,0,0,0,0
1570468253750,-35.13,0,0,0,0,0
1570468253765.63,-19.58,0,0,0,0,0
1570468253781.25,-4.15,0,0,0,0,0
1570468253796.88,9.6,0,0,0,0,0
1570468253812.5,20.48,0,0,0,0,0
1570468253828.13,27.78,0,0,0,0,0
1570468253843.75,31.36,0,0,0,0,0
1570468253859.38,31.66,0,0,0,0,0
1570468253875,29.6,0,0,0,0,0
1570468253890.63,26.31,0,0,0,0,0
1570468253906.25,22.92,0,0,0,0,0
1570468253921.88,20.28,0,0,0,0,0
1570468253937.5,18.78,0,0,0,0,0
1570468253953.13,18.36,0,0,0,0,0
1570468253968.75,18.66,0,0,0,0,0
1570468253984.38,19.35,0,0,0,0,0
1570468254000,20.36,0,0,0,0,0
1570468254015.63,21.95,0,0,0,0,0
1570468254031.25,24.55,0,0,0,0,0
1570468254046.88,28.43,0,0,0,0,0
1570468254062.5,33.29,0,0,0,0,0
1570468254078.13,38.26,0,0,0,0,0
1570468254093.75,42.05,0,0,0,0,0
1570468254109.38,43.51,0,0,0,0,0
1570468254125,42.05,0,0,0,0,0
1570468254140.63,37.94,0,0,0,0,0
1570468254156.25,32.22,0,0,0,0,0
1570468254171.88,26.34,0,0,0,0,0
1570468254187.5,21.7,0,0,0,0,0
1570468254203.13,19.25,0,0,0,0,0
1570468254218.75,19.35,0,0,0,0,0
1570468254234.38,21.73,0,0,0,0,0
1570468254250,25.66,0,0,0,0,0
1570468254265.63,30.24,0,0,0,0,0
1570468254281.25,34.56,0,0,0,0,0
1570468254296.88,37.92,0,0,0,0,0
1570468254312.5,39.82,0,0,0,0,0
1570468254328.13,39.96,0,0,0,0,0
1570468254343.75,38.21,0,0,0,0,0
1570468254359.38,34.64,0,0,0,0,0
1570468254375,29.53,0,0,0,0,0
