Timestamp,BVP,Note,AGG,ED,SIB,Condition
1569342894000,-0,0,0,0,0,0
1569342894015.63,-0,0,0,0,0,0
1569342894031.25,-0,0,0,0,0,0
1569342894046.88,-0,0,0,0,0,0
1569342894062.5,-0,0,0,0,0,0
1569342894078.13,-0,0,0,0,0,0
1569342894093.75,-0,0,0,0,0,0
1569342894109.38,-0,0,0,0,0,0
1569342894125,-0,0,0,0,0,0
1569342894140.63,-0,0,0,0,0,0
1569342894156.25,0,0,0,0,0,0
1569342894171.88,0.01,0,0,0,0,0
1569342894187.5,0.01,0,0,0,0,0
1569342894203.13,-0,0,0,0,0,0
1569342894218.75,-0.03,0,0,0,0,0
1569342894234.38,-0.05,0,0,0,0,0
1569342894250,-0.05,0,0,0,0,0
1569342894265.63,0,0,0,0,0,0
1569342894281.25,0.13,0,0,0,0,0
1569342894296.88,0.36,0,0,0,0,0
1569342894312.5,0.66,0,0,0,0,0
1569342894328.13,1.01,0,0,0,0,0
1569342894343.75,1.37,0,0,0,0,0
1569342894359.38,1.72,0,0,0,0,0
1569342894375,2.06,0,0,0,0,0
1569342894390.63,2.4,0,0,0,0,0
1569342894406.25,2.79,0,0,0,0,0
1569342894421.88,3.24,0,0,0,0,0
1569342894437.5,3.8,0,0,0,0,0
1569342894453.13,4.42,0,0,0,0,0
1569342894468.75,5.06,0,0,0,0,0
1569342894484.38,5.66,0,0,0,0,0
1569342894500,6.2,0,0,0,0,0
1569342894515.63,6.68,0,0,0,0,0
1569342894531.25,7.15,0,0,0,0,0
1569342894546.88,7.68,0,0,0,0,0
1569342894562.5,8.31,0,0,0,0,0
1569342894578.13,9.14,0,0,0,0,0
1569342894593.75,10.09,0,0,0,0,0
1569342894609.38,11.04,0,0,0,0,0
1569342894625,11.88,0,0,0,0,0
1569342894640.63,12.56,0,0,0,0,0
1569342894656.25,13.14,0,0,0,0,0
1569342894671.88,13.76,0,0,0,0,0
1569342894687.5,14.65,0,0,0,0,0
1569342894703.13,15.96,0,0,0,0,0
1569342894718.75,17.91,0,0,0,0,0
1569342894734.38,20.32,0,0,0,0,0
1569342894750,22.9,0,0,0,0,0
1569342894765.63,25.38,0,0,0,0,0
1569342894781.25,27.58,0,0,0,0,0
1569342894796.88,29.57,0,0,0,0,0
1569342894812.5,31.68,0,0,0,0,0
1569342894828.13,34.32,0,0,0,0,0
1569342894843.75,37.81,0,0,0,0,0
1569342894859.38,42.54,0,0,0,0,0
1569342894875,48.15,0,0,0,0,0
1569342894890.63,54.1,0,0,0,0,0
1569342894906.25,59.83,0,0,0,0,0
1569342894921.88,64.97,0,0,0,0,0
1569342894937.5,69.58,0,0,0,0,0
1569342894953.13,74.14,0,0,0,0,0
1569342894968.75,79.34,0,0,0,0,0
1569342894984.38,85.71,0,0,0,0,0
1569342895000,93.76,0,0,0,0,0
1569342895015.63,103,0,0,0,0,0
1569342895031.25,112.62,0,0,0,0,0
1569342895046.88,121.73,0,0,0,0,0
1569342895062.5,129.77,0,0,0,0,0
1569342895078.13,136.75,0,0,0,0,0
1569342895093.75,143.3,0,0,0,0,0
1569342895109.38,150.75,0,0,0,0,0
1569342895125,157.77,0,0,0,0,0
1569342895140.63,166.64,0,0,0,0,0
1569342895156.25,177.95,0,0,0,0,0
1569342895171.88,191.79,0,0,0,0,0
1569342895187.5,206.97,0,0,0,0,0
1569342895203.13,220.57,0,0,0,0,0
1569342895218.75,228.25,0,0,0,0,0
1569342895234.38,225.36,0,0,0,0,0
1569342895250,208.53,0,0,0,0,0
1569342895265.63,176.87,0,0,0,0,0
1569342895281.25,132.76,0,0,0,0,0
1569342895296.88,80.05,0,0,0,0,0
1569342895312.5,23.07,0,0,0,0,0
1569342895328.13,-34.94,0,0,0,0,0
1569342895343.75,-92.44,0,0,0,0,0
1569342895359.38,-149.16,0,0,0,0,0
1569342895375,-205.23,0,0,0,0,0
1569342895390.63,-260.37,0,0,0,0,0
1569342895406.25,-313.74,0,0,0,0,0
1569342895421.88,-363.88,0,0,0,0,0
1569342895437.5,-409.84,0,0,0,0,0
1569342895453.13,-450.91,0,0,0,0,0
1569342895468.75,-486.5,0,0,0,0,0
1569342895484.38,-515.74,0,0,0,0,0
1569342895500,-537.22,0,0,0,0,0
1569342895515.63,-549.2,0,0,0,0,0
1569342895531.25,-549.93,0,0,0,0,0
1569342895546.88,-538.32,0,0,0,0,0
1569342895562.5,-514.14,0,0,0,0,0
1569342895578.13,-478.58,0,0,0,0,0
1569342895593.75,-433.75,0,0,0,0,0
1569342895609.38,-382.28,0,0,0,0,0
1569342895625,-326.81,0,0,0,0,0
1569342895640.63,-269.58,0,0,0,0,0
1569342895656.25,-212.31,0,0,0,0,0
1569342895671.88,-156.28,0,0,0,0,0
1569342895687.5,-102.51,0,0,0,0,0
1569342895703.13,-51.87,0,0,0,0,0
1569342895718.75,-5.33,0,0,0,0,0
1569342895734.38,36.22,0,0,0,0,0
1569342895750,72.13,0,0,0,0,0
1569342895765.63,102.13,0,0,0,0,0
1569342895781.25,126.36,0,0,0,0,0
1569342895796.88,145.32,0,0,0,0,0
1569342895812.5,159.72,0,0,0,0,0
1569342895828.13,170.27,0,0,0,0,0
1569342895843.75,177.59,0,0,0,0,0
1569342895859.38,182.08,0,0,0,0,0
1569342895875,184.02,0,0,0,0,0
1569342895890.63,183.64,0,0,0,0,0
1569342895906.25,181.23,0,0,0,0,0
1569342895921.88,177.12,0,0,0,0,0
1569342895937.5,171.73,0,0,0,0,0
1569342895953.13,165.46,0,0,0,0,0
1569342895968.75,158.66,0,0,0,0,0
1569342895984.38,151.58,0,0,0,0,0
1569342896000,144.35,0,0,0,0,0
1569342896015.63,137.06,0,0,0,0,0
1569342896031.25,129.74,0,0,0,0,0
1569342896046.88,122.44,0,0,0,0,0
1569342896062.5,115.22,0,0,0,0,0
1569342896078.13,108.16,0,0,0,0,0
1569342896093.75,101.32,0,0,0,0,0
1569342896109.38,94.77,0,0,0,0,0
1569342896125,88.52,0,0,0,0,0
1569342896140.63,82.6,0,0,0,0,0
1569342896156.25,77.02,0,0,0,0,0
1569342896171.88,71.79,0,0,0,0,0
1569342896187.5,66.92,0,0,0,0,0
1569342896203.13,62.42,0,0,0,0,0
1569342896218.75,58.31,0,0,0,0,0
1569342896234.38,54.57,0,0,0,0,0
1569342896250,51.21,0,0,0,0,0
1569342896265.63,48.23,0,0,0,0,0
1569342896281.25,45.61,0,0,0,0,0
1569342896296.88,43.34,0,0,0,0,0
1569342896312.5,41.43,0,0,0,0,0
1569342896328.13,39.87,0,0,0,0,0
1569342896343.75,38.67,0,0,0,0,0
1569342896359.38,37.83,0,0,0,0,0
1569342896375,37.33,0,0,0,0,0
1569342896390.63,37.15,0,0,0,0,0
1569342896406.25,37.24,0,0,0,0,0
1569342896421.88,37.51,0,0,0,0,0
1569342896437.5,37.88,0,0,0,0,0
1569342896453.13,38.19,0,0,0,0,0
1569342896468.75,38.29,0,0,0,0,0
1569342896484.38,37.99,0,0,0,0,0
1569342896500,37.13,0,0,0,0,0
1569342896515.63,35.56,0,0,0,0,0
1569342896531.25,33.18,0,0,0,0,0
1569342896546.88,29.94,0,0,0,0,0
1569342896562.5,25.88,0,0,0,0,0
1569342896578.13,21.04,0,0,0,0,0
1569342896593.75,15.59,0,0,0,0,0
1569342896609.38,9.74,0,0,0,0,0
1569342896625,3.74,0,0,0,0,0
1569342896640.63,-2.16,0,0,0,0,0
1569342896656.25,-7.69,0,0,0,0,0
1569342896671.88,-12.64,0,0,0,0,0
1569342896687.5,-16.84,0,0,0,0,0
1569342896703.13,-20.15,0,0,0,0,0
1569342896718.75,-22.51,0,0,0,0,0
1569342896734.38,-23.93,0,0,0,0,0
1569342896750,-24.44,0,0,0,0,0
1569342896765.63,-24.13,0,0,0,0,0
1569342896781.25,-23.1,0,0,0,0,0
1569342896796.88,-21.47,0,0,0,0,0
1569342896812.5,-19.35,0,0,0,0,0
1569342896828.13,-16.85,0,0,0,0,0
1569342896843.75,-14.07,0,0,0,0,0
1569342896859.38,-11.09,0,0,0,0,0
1569342896875,-7.95,0,0,0,0,0
1569342896890.63,-4.73,0,0,0,0,0
1569342896906.25,-1.5,0,0,0,0,0
1569342896921.88,1.72,0,0,0,0,0
1569342896937.5,4.91,0,0,0,0,0
1569342896953.13,8.07,0,0,0,0,0
1569342896968.75,11.25,0,0,0,0,0
1569342896984.38,14.47,0,0,0,0,0
1569342897000,17.76,0,0,0,0,0
1569342897015.63,21.15,0,0,0,0,0
1569342897031.25,24.62,0,0,0,0,0
1569342897046.88,28.12,0,0,0,0,0
1569342897062.5,31.61,0,0,0,0,0
1569342897078.13,35.04,0,0,0,0,0
1569342897093.75,38.34,0,0,0,0,0
1569342897109.38,41.45,0,0,0,0,0
1569342897125,44.34,0,0,0,0,0
1569342897140.63,46.98,0,0,0,0,0
1569342897156.25,49.42,0,0,0,0,0
1569342897171.88,51.49,0,0,0,0,0
1569342897187.5,53.15,0,0,0,0,0
1569342897203.13,54.4,0,0,0,0,0
1569342897218.75,55.32,0,0,0,0,0
1569342897234.38,56.02,0,0,0,0,0
1569342897250,56.62,0,0,0,0,0
1569342897265.63,57.29,0,0,0,0,0
1569342897281.25,58.2,0,0,0,0,0
1569342897296.88,59.55,0,0,0,0,0
1569342897312.5,61.24,0,0,0,0,0
1569342897328.13,63.25,0,0,0,0,0
1569342897343.75,65.56,0,0,0,0,0
1569342897359.38,68.14,0,0,0,0,0
1569342897375,70.97,0,0,0,0,0
1569342897390.63,74.07,0,0,0,0,0
1569342897406.25,77.46,0,0,0,0,0
1569342897421.88,81.18,0,0,0,0,0
1569342897437.5,85.3,0,0,0,0,0
1569342897453.13,89.51,0,0,0,0,0
1569342897468.75,93.59,0,0,0,0,0
1569342897484.38,97.37,0,0,0,0,0
1569342897500,100.64,0,0,0,0,0
1569342897515.63,103.16,0,0,0,0,0
1569342897531.25,104.57,0,0,0,0,0
1569342897546.88,104.32,0,0,0,0,0
1569342897562.5,101.65,0,0,0,0,0
1569342897578.13,98.17,0,0,0,0,0
1569342897593.75,94.39,0,0,0,0,0
1569342897609.38,90.56,0,0,0,0,0
1569342897625,86.75,0,0,0,0,0
1569342897640.63,82.98,0,0,0,0,0
1569342897656.25,79.19,0,0,0,0,0
1569342897671.88,75.34,0,0,0,0,0
1569342897687.5,71.41,0,0,0,0,0
1569342897703.13,67.42,0,0,0,0,0
1569342897718.75,63.45,0,0,0,0,0
1569342897734.38,59.25,0,0,0,0,0
1569342897750,54.76,0,0,0,0,0
1569342897765.63,50.03,0,0,0,0,0
1569342897781.25,45.14,0,0,0,0,0
1569342897796.88,40.28,0,0,0,0,0
1569342897812.5,35.66,0,0,0,0,0
1569342897828.13,31.54,0,0,0,0,0
1569342897843.75,28.16,0,0,0,0,0
1569342897859.38,25.8,0,0,0,0,0
1569342897875,24.41,0,0,0,0,0
1569342897890.63,23.93,0,0,0,0,0
1569342897906.25,24.31,0,0,0,0,0
1569342897921.88,25.47,0,0,0,0,0
1569342897937.5,27.24,0,0,0,0,0
1569342897953.13,29.49,0,0,0,0,0
1569342897968.75,32.05,0,0,0,0,0
1569342897984.38,34.84,0,0,0,0,0
1569342898000,37.78,0,0,0,0,0
1569342898015.63,40.68,0,0,0,0,0
1569342898031.25,43.45,0,0,0,0,0
1569342898046.88,45.98,0,0,0,0,0
1569342898062.5,48.14,0,0,0,0,0
1569342898078.13,49.84,0,0,0,0,0
1569342898093.75,50.96,0,0,0,0,0
1569342898109.38,51.44,0,0,0,0,0
1569342898125,51.27,0,0,0,0,0
1569342898140.63,50.52,0,0,0,0,0
1569342898156.25,49.23,0,0,0,0,0
1569342898171.88,47.37,0,0,0,0,0
1569342898187.5,44.94,0,0,0,0,0
1569342898203.13,41.86,0,0,0,0,0
1569342898218.75,38.04,0,0,0,0,0
1569342898234.38,33.43,0,0,0,0,0
1569342898250,28.1,0,0,0,0,0
1569342898265.63,22.24,0,0,0,0,0
1569342898281.25,16.19,0,0,0,0,0
1569342898296.88,10.26,0,0,0,0,0
1569342898312.5,4.68,0,0,0,0,0
1569342898328.13,-0.44,0,0,0,0,0
1569342898343.75,-5.28,0,0,0,0,0
1569342898359.38,-10.14,0,0,0,0,0
1569342898375,-15.32,0,0,0,0,0
1569342898390.63,-21,0,0,0,0,0
1569342898406.25,-27.05,0,0,0,0,0
1569342898421.88,-33.11,0,0,0,0,0
1569342898437.5,-38.67,0,0,0,0,0
1569342898453.13,-43.39,0,0,0,0,0
1569342898468.75,-47.26,0,0,0,0,0
1569342898484.38,-50.74,0,0,0,0,0
1569342898500,-54.57,0,0,0,0,0
1569342898515.63,-59.46,0,0,0,0,0
1569342898531.25,-65.75,0,0,0,0,0
1569342898546.88,-73.21,0,0,0,0,0
1569342898562.5,-81.08,0,0,0,0,0
1569342898578.13,-88.45,0,0,0,0,0
1569342898593.75,-94.77,0,0,0,0,0
1569342898609.38,-100.22,0,0,0,0,0
1569342898625,-105.82,0,0,0,0,0
1569342898640.63,-113.09,0,0,0,0,0
1569342898656.25,-123.32,0,0,0,0,0
1569342898671.88,-137.03,0,0,0,0,0
1569342898687.5,-153.54,0,0,0,0,0
1569342898703.13,-171.29,0,0,0,0,0
1569342898718.75,-188.49,0,0,0,0,0
1569342898734.38,-203.99,0,0,0,0,0
1569342898750,-217.85,0,0,0,0,0
1569342898765.63,-231.34,0,0,0,0,0
1569342898781.25,-246.33,0,0,0,0,0
1569342898796.88,-264.49,0,0,0,0,0
1569342898812.5,-286.71,0,0,0,0,0
1569342898828.13,-312.97,0,0,0,0,0
1569342898843.75,-342.54,0,0,0,0,0
1569342898859.38,-374.08,0,0,0,0,0
1569342898875,-405.7,0,0,0,0,0
1569342898890.63,-434.8,0,0,0,0,0
1569342898906.25,-458.14,0,0,0,0,0
1569342898921.88,-472.52,0,0,0,0,0
1569342898937.5,-475.9,0,0,0,0,0
1569342898953.13,-468.42,0,0,0,0,0
1569342898968.75,-452.54,0,0,0,0,0
1569342898984.38,-431.9,0,0,0,0,0
1569342899000,-409.37,0,0,0,0,0
1569342899015.63,-385.36,0,0,0,0,0
1569342899031.25,-357.8,0,0,0,0,0
1569342899046.88,-323.84,0,0,0,0,0
1569342899062.5,-282.46,0,0,0,0,0
1569342899078.13,-236.25,0,0,0,0,0
1569342899093.75,-191.15,0,0,0,0,0
1569342899109.38,-153.79,0,0,0,0,0
1569342899125,-128.13,0,0,0,0,0
1569342899140.63,-113.24,0,0,0,0,0
1569342899156.25,-103.65,0,0,0,0,0
1569342899171.88,-92.25,0,0,0,0,0
1569342899187.5,-73.91,0,0,0,0,0
1569342899203.13,-47.9,0,0,0,0,0
1569342899218.75,-17.94,0,0,0,0,0
1569342899234.38,10.26,0,0,0,0,0
1569342899250,31.97,0,0,0,0,0
1569342899265.63,45.66,0,0,0,0,0
1569342899281.25,53.22,0,0,0,0,0
1569342899296.88,58.47,0,0,0,0,0
1569342899312.5,65.1,0,0,0,0,0
1569342899328.13,75.16,0,0,0,0,0
1569342899343.75,88.58,0,0,0,0,0
1569342899359.38,103.91,0,0,0,0,0
1569342899375,119.54,0,0,0,0,0
1569342899390.63,134.67,0,0,0,0,0
1569342899406.25,149.5,0,0,0,0,0
1569342899421.88,164.8,0,0,0,0,0
1569342899437.5,180.82,0,0,0,0,0
1569342899453.13,196.53,0,0,0,0,0
1569342899468.75,209.57,0,0,0,0,0
1569342899484.38,217.28,0,0,0,0,0
1569342899500,218.12,0,0,0,0,0
1569342899515.63,212.67,0,0,0,0,0
1569342899531.25,203.61,0,0,0,0,0
1569342899546.88,194.32,0,0,0,0,0
1569342899562.5,187.18,0,0,0,0,0
1569342899578.13,182.39,0,0,0,0,0
1569342899593.75,178.12,0,0,0,0,0
1569342899609.38,172.02,0,0,0,0,0
1569342899625,163.01,0,0,0,0,0
1569342899640.63,152.32,0,0,0,0,0
1569342899656.25,143.08,0,0,0,0,0
1569342899671.88,138.72,0,0,0,0,0
1569342899687.5,141.11,0,0,0,0,0
1569342899703.13,149.63,0,0,0,0,0
1569342899718.75,161.45,0,0,0,0,0
1569342899734.38,172.98,0,0,0,0,0
1569342899750,181.39,0,0,0,0,0
1569342899765.63,185.54,0,0,0,0,0
1569342899781.25,186.09,0,0,0,0,0
1569342899796.88,184.82,0,0,0,0,0
1569342899812.5,183.71,0,0,0,0,0
1569342899828.13,184.2,0,0,0,0,0
1569342899843.75,187.02,0,0,0,0,0
1569342899859.38,192.28,0,0,0,0,0
1569342899875,199.85,0,0,0,0,0
1569342899890.63,209.76,0,0,0,0,0
1569342899906.25,222.09,0,0,0,0,0
1569342899921.88,236.61,0,0,0,0,0
1569342899937.5,252.18,0,0,0,0,0
1569342899953.13,266.5,0,0,0,0,0
1569342899968.75,276.4,0,0,0,0,0
1569342899984.38,278.75,0,0,0,0,0
1569342900000,271.69,0,0,0,0,0
1569342900015.63,255.22,0,0,0,0,0
1569342900031.25,231.4,0,0,0,0,0
1569342900046.88,203.36,0,0,0,0,0
1569342900062.5,174.05,0,0,0,0,0
1569342900078.13,145.21,0,0,0,0,0
1569342900093.75,117.03,0,0,0,0,0
1569342900109.38,88.53,0,0,0,0,0
1569342900125,58.5,0,0,0,0,0
1569342900140.63,26.24,0,0,0,0,0
1569342900156.25,-8.3,0,0,0,0,0
1569342900171.88,-44.77,0,0,0,0,0
1569342900187.5,-82.91,0,0,0,0,0
1569342900203.13,-122.53,0,0,0,0,0
1569342900218.75,-163.14,0,0,0,0,0
1569342900234.38,-203.34,0,0,0,0,0
1569342900250,-240.68,0,0,0,0,0
1569342900265.63,-272.02,0,0,0,0,0
1569342900281.25,-294.88,0,0,0,0,0
1569342900296.88,-308.53,0,0,0,0,0
1569342900312.5,-314.55,0,0,0,0,0
1569342900328.13,-316.21,0,0,0,0,0
1569342900343.75,-316.96,0,0,0,0,0
1569342900359.38,-318.76,0,0,0,0,0
1569342900375,-321.14,0,0,0,0,0
1569342900390.63,-321.78,0,0,0,0,0
1569342900406.25,-317.73,0,0,0,0,0
1569342900421.88,-307.14,0,0,0,0,0
1569342900437.5,-290.07,0,0,0,0,0
1569342900453.13,-268.27,0,0,0,0,0
1569342900468.75,-244.35,0,0,0,0,0
1569342900484.38,-220.57,0,0,0,0,0
1569342900500,-198.41,0,0,0,0,0
1569342900515.63,-178.6,0,0,0,0,0
1569342900531.25,-161.42,0,0,0,0,0
1569342900546.88,-146.88,0,0,0,0,0
1569342900562.5,-134.72,0,0,0,0,0
1569342900578.13,-124.27,0,0,0,0,0
1569342900593.75,-114.43,0,0,0,0,0
1569342900609.38,-103.95,0,0,0,0,0
1569342900625,-91.94,0,0,0,0,0
1569342900640.63,-78.09,0,0,0,0,0
1569342900656.25,-62.61,0,0,0,0,0
1569342900671.88,-45.84,0,0,0,0,0
1569342900687.5,-27.85,0,0,0,0,0
1569342900703.13,-8.4,0,0,0,0,0
1569342900718.75,12.7,0,0,0,0,0
1569342900734.38,35.32,0,0,0,0,0
1569342900750,58.86,0,0,0,0,0
1569342900765.63,82.37,0,0,0,0,0
1569342900781.25,104.7,0,0,0,0,0
1569342900796.88,124.64,0,0,0,0,0
1569342900812.5,140.77,0,0,0,0,0
1569342900828.13,151.6,0,0,0,0,0
1569342900843.75,155.92,0,0,0,0,0
1569342900859.38,153.53,0,0,0,0,0
1569342900875,145.64,0,0,0,0,0
1569342900890.63,134.7,0,0,0,0,0
1569342900906.25,123.28,0,0,0,0,0
1569342900921.88,112.75,0,0,0,0,0
1569342900937.5,102.5,0,0,0,0,0
1569342900953.13,90.53,0,0,0,0,0
1569342900968.75,74.88,0,0,0,0,0
1569342900984.38,55.36,0,0,0,0,0
1569342901000,34.09,0,0,0,0,0
1569342901015.63,14.63,0,0,0,0,0
1569342901031.25,0.36,0,0,0,0,0
1569342901046.88,-7.27,0,0,0,0,0
1569342901062.5,-9.1,0,0,0,0,0
1569342901078.13,-7.48,0,0,0,0,0
1569342901093.75,-4.77,0,0,0,0,0
1569342901109.38,-2.33,0,0,0,0,0
1569342901125,-0.26,0,0,0,0,0
1569342901140.63,1.87,0,0,0,0,0
1569342901156.25,4.11,0,0,0,0,0
1569342901171.88,5.87,0,0,0,0,0
1569342901187.5,6.21,0,0,0,0,0
1569342901203.13,4.79,0,0,0,0,0
1569342901218.75,2.58,0,0,0,0,0
1569342901234.38,1.76,0,0,0,0,0
1569342901250,4.94,0,0,0,0,0
1569342901265.63,13.96,0,0,0,0,0
1569342901281.25,29.08,0,0,0,0,0
1569342901296.88,48.98,0,0,0,0,0
1569342901312.5,71.57,0,0,0,0,0
1569342901328.13,95.13,0,0,0,0,0
1569342901343.75,118.98,0,0,0,0,0
1569342901359.38,143.32,0,0,0,0,0
1569342901375,168.17,0,0,0,0,0
1569342901390.63,192.46,0,0,0,0,0
1569342901406.25,213.64,0,0,0,0,0
1569342901421.88,228.64,0,0,0,0,0
1569342901437.5,235.22,0,0,0,0,0
1569342901453.13,233.16,0,0,0,0,0
1569342901468.75,224.18,0,0,0,0,0
1569342901484.38,210.77,0,0,0,0,0
1569342901500,194.78,0,0,0,0,0
1569342901515.63,176.54,0,0,0,0,0
1569342901531.25,155.55,0,0,0,0,0
1569342901546.88,131.76,0,0,0,0,0
1569342901562.5,106.69,0,0,0,0,0
1569342901578.13,83.47,0,0,0,0,0
1569342901593.75,65.52,0,0,0,0,0
1569342901609.38,54.64,0,0,0,0,0
1569342901625,49.87,0,0,0,0,0
1569342901640.63,47.88,0,0,0,0,0
1569342901656.25,44.73,0,0,0,0,0
1569342901671.88,38.09,0,0,0,0,0
1569342901687.5,28.44,0,0,0,0,0
1569342901703.13,18.37,0,0,0,0,0
1569342901718.75,10.96,0,0,0,0,0
1569342901734.38,7.66,0,0,0,0,0
1569342901750,7.56,0,0,0,0,0
1569342901765.63,7.91,0,0,0,0,0
1569342901781.25,5.83,0,0,0,0,0
1569342901796.88,-0.08,0,0,0,0,0
1569342901812.5,-9.25,0,0,0,0,0
1569342901828.13,-19.74,0,0,0,0,0
1569342901843.75,-29.56,0,0,0,0,0
1569342901859.38,-37.54,0,0,0,0,0
1569342901875,-43.65,0,0,0,0,0
1569342901890.63,-48.38,0,0,0,0,0
1569342901906.25,-52.32,0,0,0,0,0
1569342901921.88,-56.1,0,0,0,0,0
1569342901937.5,-61.03,0,0,0,0,0
1569342901953.13,-69.22,0,0,0,0,0
1569342901968.75,-82.87,0,0,0,0,0
1569342901984.38,-102.94,0,0,0,0,0
1569342902000,-127.62,0,0,0,0,0
1569342902015.63,-152.29,0,0,0,0,0
1569342902031.25,-170.65,0,0,0,0,0
1569342902046.88,-177.26,0,0,0,0,0
1569342902062.5,-169.67,0,0,0,0,0
1569342902078.13,-149.45,0,0,0,0,0
1569342902093.75,-121.42,0,0,0,0,0
1569342902109.38,-91.79,0,0,0,0,0
1569342902125,-66.2,0,0,0,0,0
1569342902140.63,-48.39,0,0,0,0,0
1569342902156.25,-39.91,0,0,0,0,0
1569342902171.88,-40.46,0,0,0,0,0
1569342902187.5,-48.24,0,0,0,0,0
1569342902203.13,-60.44,0,0,0,0,0
1569342902218.75,-73.54,0,0,0,0,0
1569342902234.38,-84,0,0,0,0,0
1569342902250,-89.06,0,0,0,0,0
1569342902265.63,-87.56,0,0,0,0,0
1569342902281.25,-80.32,0,0,0,0,0
1569342902296.88,-69.84,0,0,0,0,0
1569342902312.5,-59.33,0,0,0,0,0
1569342902328.13,-51.63,0,0,0,0,0
1569342902343.75,-48.38,0,0,0,0,0
1569342902359.38,-49.62,0,0,0,0,0
1569342902375,-54.09,0,0,0,0,0
1569342902390.63,-59.85,0,0,0,0,0
1569342902406.25,-65.07,0,0,0,0,0
1569342902421.88,-68.33,0,0,0,0,0
1569342902437.5,-68.91,0,0,0,0,0
1569342902453.13,-66.69,0,0,0,0,0
1569342902468.75,-61.99,0,0,0,0,0
1569342902484.38,-55.57,0,0,0,0,0
1569342902500,-48.57,0,0,0,0,0
1569342902515.63,-42.38,0,0,0,0,0
1569342902531.25,-38.41,0,0,0,0,0
1569342902546.88,-37.64,0,0,0,0,0
1569342902562.5,-40.29,0,0,0,0,0
1569342902578.13,-45.66,0,0,0,0,0
1569342902593.75,-52.43,0,0,0,0,0
1569342902609.38,-59.04,0,0,0,0,0
1569342902625,-64.24,0,0,0,0,0
1569342902640.63,-67.43,0,0,0,0,0
1569342902656.25,-68.72,0,0,0,0,0
1569342902671.88,-68.69,0,0,0,0,0
1569342902687.5,-68.08,0,0,0,0,0
1569342902703.13,-67.58,0,0,0,0,0
1569342902718.75,-67.5,0,0,0,0,0
1569342902734.38,-67.8,0,0,0,0,0
1569342902750,-68.1,0,0,0,0,0
1569342902765.63,-67.89,0,0,0,0,0
1569342902781.25,-66.67,0,0,0,0,0
1569342902796.88,-64.23,0,0,0,0,0
1569342902812.5,-60.86,0,0,0,0,0
1569342902828.13,-57.16,0,0,0,0,0
1569342902843.75,-53.9,0,0,0,0,0
1569342902859.38,-51.71,0,0,0,0,0
1569342902875,-50.72,0,0,0,0,0
1569342902890.63,-50.45,0,0,0,0,0
1569342902906.25,-49.97,0,0,0,0,0
1569342902921.88,-48.24,0,0,0,0,0
1569342902937.5,-44.39,0,0,0,0,0
1569342902953.13,-38.05,0,0,0,0,0
1569342902968.75,-29.38,0,0,0,0,0
1569342902984.38,-18.99,0,0,0,0,0
1569342903000,-7.88,0,0,0,0,0
1569342903015.63,2.84,0,0,0,0,0
1569342903031.25,12.06,0,0,0,0,0
1569342903046.88,18.89,0,0,0,0,0
1569342903062.5,22.87,0,0,0,0,0
1569342903078.13,24.12,0,0,0,0,0
1569342903093.75,23.18,0,0,0,0,0
1569342903109.38,20.91,0,0,0,0,0
1569342903125,18.17,0,0,0,0,0
1569342903140.63,15.53,0,0,0,0,0
1569342903156.25,13.3,0,0,0,0,0
1569342903171.88,11.55,0,0,0,0,0
1569342903187.5,10.32,0,0,0,0,0
1569342903203.13,9.77,0,0,0,0,0
1569342903218.75,10.06,0,0,0,0,0
1569342903234.38,11.18,0,0,0,0,0
1569342903250,12.8,0,0,0,0,0
1569342903265.63,14.31,0,0,0,0,0
1569342903281.25,14.87,0,0,0,0,0
1569342903296.88,13.78,0,0,0,0,0
1569342903312.5,10.71,0,0,0,0,0
1569342903328.13,5.73,0,0,0,0,0
1569342903343.75,-0.66,0,0,0,0,0
1569342903359.38,-7.71,0,0,0,0,0
1569342903375,-14.56,0,0,0,0,0
1569342903390.63,-20.26,0,0,0,0,0
1569342903406.25,-23.85,0,0,0,0,0
1569342903421.88,-24.54,0,0,0,0,0
1569342903437.5,-21.89,0,0,0,0,0
1569342903453.13,-16.07,0,0,0,0,0
1569342903468.75,-7.81,0,0,0,0,0
1569342903484.38,1.62,0,0,0,0,0
1569342903500,10.78,0,0,0,0,0
1569342903515.63,18.4,0,0,0,0,0
1569342903531.25,23.63,0,0,0,0,0
1569342903546.88,26.29,0,0,0,0,0
1569342903562.5,26.65,0,0,0,0,0
1569342903578.13,25.45,0,0,0,0,0
1569342903593.75,23.56,0,0,0,0,0
1569342903609.38,21.82,0,0,0,0,0
1569342903625,20.87,0,0,0,0,0
1569342903640.63,21.04,0,0,0,0,0
1569342903656.25,22.39,0,0,0,0,0
1569342903671.88,24.81,0,0,0,0,0
1569342903687.5,28.07,0,0,0,0,0
1569342903703.13,31.74,0,0,0,0,0
1569342903718.75,35.41,0,0,0,0,0
1569342903734.38,38.48,0,0,0,0,0
1569342903750,40.38,0,0,0,0,0
1569342903765.63,40.75,0,0,0,0,0
1569342903781.25,39.48,0,0,0,0,0
1569342903796.88,36.87,0,0,0,0,0
1569342903812.5,33.45,0,0,0,0,0
1569342903828.13,29.76,0,0,0,0,0
1569342903843.75,26.13,0,0,0,0,0
1569342903859.38,22.66,0,0,0,0,0
1569342903875,19.31,0,0,0,0,0
1569342903890.63,16.21,0,0,0,0,0
1569342903906.25,13.82,0,0,0,0,0
1569342903921.88,12.79,0,0,0,0,0
1569342903937.5,13.65,0,0,0,0,0
1569342903953.13,16.47,0,0,0,0,0
1569342903968.75,20.8,0,0,0,0,0
1569342903984.38,25.65,0,0,0,0,0
1569342904000,29.96,0,0,0,0,0
1569342904015.63,32.77,0,0,0,0,0
1569342904031.25,33.63,0,0,0,0,0
1569342904046.88,32.51,0,0,0,0,0
1569342904062.5,29.71,0,0,0,0,0
1569342904078.13,25.71,0,0,0,0,0
1569342904093.75,20.88,0,0,0,0,0
1569342904109.38,15.51,0,0,0,0,0
1569342904125,9.66,0,0,0,0,0
1569342904140.63,3.4,0,0,0,0,0
1569342904156.25,-3.34,0,0,0,0,0
1569342904171.88,-10.5,0,0,0,0,0
1569342904187.5,-17.91,0,0,0,0,0
1569342904203.13,-25.21,0,0,0,0,0
1569342904218.75,-31.87,0,0,0,0,0
1569342904234.38,-37.43,0,0,0,0,0
1569342904250,-41.65,0,0,0,0,0
1569342904265.63,-44.73,0,0,0,0,0
1569342904281.25,-47.39,0,0,0,0,0
1569342904296.88,-50.63,0,0,0,0,0
1569342904312.5,-55.5,0,0,0,0,0
1569342904328.13,-62.59,0,0,0,0,0
1569342904343.75,-71.57,0,0,0,0,0
1569342904359.38,-81.22,0,0,0,0,0
1569342904375,-89.57,0,0,0,0,0
1569342904390.63,-94.47,0,0,0,0,0
1569342904406.25,-94.02,0,0,0,0,0
1569342904421.88,-86.91,0,0,0,0,0
1569342904437.5,-72.56,0,0,0,0,0
1569342904453.13,-51.06,0,0,0,0,0
1569342904468.75,-23.27,0,0,0,0,0
1569342904484.38,9.26,0,0,0,0,0
1569342904500,44.32,0,0,0,0,0
1569342904515.63,79.05,0,0,0,0,0
1569342904531.25,110.72,0,0,0,0,0
1569342904546.88,137.33,0,0,0,0,0
1569342904562.5,157.99,0,0,0,0,0
1569342904578.13,172.42,0,0,0,0,0
1569342904593.75,180.21,0,0,0,0,0
1569342904609.38,180.32,0,0,0,0,0
1569342904625,171.73,0,0,0,0,0
1569342904640.63,155.05,0,0,0,0,0
1569342904656.25,133.55,0,0,0,0,0
1569342904671.88,113.07,0,0,0,0,0
1569342904687.5,99.66,0,0,0,0,0
1569342904703.13,96.58,0,0,0,0,0
1569342904718.75,102.21,0,0,0,0,0
1569342904734.38,110.33,0,0,0,0,0
1569342904750,113.17,0,0,0,0,0
1569342904765.63,105.08,0,0,0,0,0
1569342904781.25,84.97,0,0,0,0,0
1569342904796.88,56.18,0,0,0,0,0
1569342904812.5,23.89,0,0,0,0,0
1569342904828.13,-8.07,0,0,0,0,0
1569342904843.75,-38.69,0,0,0,0,0
1569342904859.38,-69.12,0,0,0,0,0
1569342904875,-100.19,0,0,0,0,0
1569342904890.63,-130.48,0,0,0,0,0
1569342904906.25,-155.9,0,0,0,0,0
1569342904921.88,-171.4,0,0,0,0,0
1569342904937.5,-173.49,0,0,0,0,0
1569342904953.13,-162.36,0,0,0,0,0
1569342904968.75,-142.51,0,0,0,0,0
1569342904984.38,-121.46,0,0,0,0,0
1569342905000,-107.15,0,0,0,0,0
1569342905015.63,-105.24,0,0,0,0,0
1569342905031.25,-117.28,0,0,0,0,0
1569342905046.88,-140.67,0,0,0,0,0
1569342905062.5,-170.02,0,0,0,0,0
1569342905078.13,-199.51,0,0,0,0,0
1569342905093.75,-224.52,0,0,0,0,0
1569342905109.38,-242.55,0,0,0,0,0
1569342905125,-252.76,0,0,0,0,0
1569342905140.63,-255.07,0,0,0,0,0
1569342905156.25,-249.73,0,0,0,0,0
1569342905171.88,-237.46,0,0,0,0,0
1569342905187.5,-220.31,0,0,0,0,0
1569342905203.13,-201.94,0,0,0,0,0
1569342905218.75,-186.99,0,0,0,0,0
1569342905234.38,-179.44,0,0,0,0,0
1569342905250,-180.67,0,0,0,0,0
1569342905265.63,-188.28,0,0,0,0,0
1569342905281.25,-196.71,0,0,0,0,0
1569342905296.88,-199.29,0,0,0,0,0
1569342905312.5,-190.93,0,0,0,0,0
1569342905328.13,-169.94,0,0,0,0,0
1569342905343.75,-138.56,0,0,0,0,0
1569342905359.38,-101.73,0,0,0,0,0
1569342905375,-65.13,0,0,0,0,0
1569342905390.63,-33.24,0,0,0,0,0
1569342905406.25,-8.14,0,0,0,0,0
1569342905421.88,10.69,0,0,0,0,0
1569342905437.5,25.69,0,0,0,0,0
1569342905453.13,40.1,0,0,0,0,0
1569342905468.75,56.79,0,0,0,0,0
1569342905484.38,77.66,0,0,0,0,0
1569342905500,103.35,0,0,0,0,0
1569342905515.63,133.45,0,0,0,0,0
1569342905531.25,166.72,0,0,0,0,0
1569342905546.88,201.27,0,0,0,0,0
1569342905562.5,234.77,0,0,0,0,0
1569342905578.13,264.76,0,0,0,0,0
1569342905593.75,289.11,0,0,0,0,0
1569342905609.38,306.61,0,0,0,0,0
1569342905625,317.14,0,0,0,0,0
1569342905640.63,321.39,0,0,0,0,0
1569342905656.25,320.29,0,0,0,0,0
1569342905671.88,314.27,0,0,0,0,0
1569342905687.5,303.19,0,0,0,0,0
1569342905703.13,286.73,0,0,0,0,0
1569342905718.75,265.12,0,0,0,0,0
1569342905734.38,239.4,0,0,0,0,0
1569342905750,211.33,0,0,0,0,0
1569342905765.63,182.47,0,0,0,0,0
1569342905781.25,153.63,0,0,0,0,0
1569342905796.88,124.82,0,0,0,0,0
1569342905812.5,95.69,0,0,0,0,0
1569342905828.13,66.19,0,0,0,0,0
1569342905843.75,36.76,0,0,0,0,0
1569342905859.38,8.09,0,0,0,0,0
1569342905875,-19.53,0,0,0,0,0
1569342905890.63,-46.17,0,0,0,0,0
1569342905906.25,-71.78,0,0,0,0,0
1569342905921.88,-95.28,0,0,0,0,0
1569342905937.5,-114.55,0,0,0,0,0
1569342905953.13,-127.37,0,0,0,0,0
1569342905968.75,-133.03,0,0,0,0,0
1569342905984.38,-133.51,0,0,0,0,0
1569342906000,-133.1,0,0,0,0,0
1569342906015.63,-136.61,0,0,0,0,0
1569342906031.25,-146.88,0,0,0,0,0
1569342906046.88,-163.12,0,0,0,0,0
1569342906062.5,-180.88,0,0,0,0,0
1569342906078.13,-193.86,0,0,0,0,0
1569342906093.75,-196.89,0,0,0,0,0
1569342906109.38,-188.32,0,0,0,0,0
1569342906125,-170.99,0,0,0,0,0
1569342906140.63,-150.97,0,0,0,0,0
1569342906156.25,-134.8,0,0,0,0,0
1569342906171.88,-126.58,0,0,0,0,0
1569342906187.5,-126.28,0,0,0,0,0
1569342906203.13,-129.89,0,0,0,0,0
1569342906218.75,-131.26,0,0,0,0,0
1569342906234.38,-124.77,0,0,0,0,0
1569342906250,-107.16,0,0,0,0,0
1569342906265.63,-78.21,0,0,0,0,0
1569342906281.25,-39.82,0,0,0,0,0
1569342906296.88,5.27,0,0,0,0,0
1569342906312.5,54.32,0,0,0,0,0
1569342906328.13,104.25,0,0,0,0,0
1569342906343.75,151.03,0,0,0,0,0
1569342906359.38,189.72,0,0,0,0,0
1569342906375,215.78,0,0,0,0,0
1569342906390.63,227.38,0,0,0,0,0
1569342906406.25,227.12,0,0,0,0,0
1569342906421.88,221.91,0,0,0,0,0
1569342906437.5,220.66,0,0,0,0,0
1569342906453.13,230.67,0,0,0,0,0
1569342906468.75,254.3,0,0,0,0,0
1569342906484.38,287.78,0,0,0,0,0
1569342906500,322.78,0,0,0,0,0
1569342906515.63,349.84,0,0,0,0,0
1569342906531.25,362.36,0,0,0,0,0
1569342906546.88,358.93,0,0,0,0,0
1569342906562.5,343.72,0,0,0,0,0
1569342906578.13,324.2,0,0,0,0,0
1569342906593.75,307.92,0,0,0,0,0
1569342906609.38,299.55,0,0,0,0,0
1569342906625,299.35,0,0,0,0,0
1569342906640.63,303.63,0,0,0,0,0
1569342906656.25,306.53,0,0,0,0,0
1569342906671.88,302.48,0,0,0,0,0
1569342906687.5,287.93,0,0,0,0,0
1569342906703.13,262.19,0,0,0,0,0
1569342906718.75,226.9,0,0,0,0,0
1569342906734.38,185.02,0,0,0,0,0
1569342906750,139.8,0,0,0,0,0
1569342906765.63,93.97,0,0,0,0,0
1569342906781.25,49.72,0,0,0,0,0
1569342906796.88,8.71,0,0,0,0,0
1569342906812.5,-27.99,0,0,0,0,0
1569342906828.13,-60.23,0,0,0,0,0
1569342906843.75,-88.92,0,0,0,0,0
1569342906859.38,-115.66,0,0,0,0,0
1569342906875,-141.83,0,0,0,0,0
1569342906890.63,-167.48,0,0,0,0,0
1569342906906.25,-190.8,0,0,0,0,0
1569342906921.88,-208.66,0,0,0,0,0
1569342906937.5,-217.77,0,0,0,0,0
1569342906953.13,-216.09,0,0,0,0,0
1569342906968.75,-203.39,0,0,0,0,0
1569342906984.38,-181,0,0,0,0,0
1569342907000,-151.06,0,0,0,0,0
1569342907015.63,-115.91,0,0,0,0,0
1569342907031.25,-78.06,0,0,0,0,0
1569342907046.88,-40.54,0,0,0,0,0
1569342907062.5,-6.93,0,0,0,0,0
1569342907078.13,19.2,0,0,0,0,0
1569342907093.75,35.57,0,0,0,0,0
1569342907109.38,42.48,0,0,0,0,0
1569342907125,43.32,0,0,0,0,0
1569342907140.63,43.86,0,0,0,0,0
1569342907156.25,50.23,0,0,0,0,0
1569342907171.88,66.96,0,0,0,0,0
1569342907187.5,95.49,0,0,0,0,0
1569342907203.13,134.12,0,0,0,0,0
1569342907218.75,178.67,0,0,0,0,0
1569342907234.38,223.81,0,0,0,0,0
1569342907250,264.34,0,0,0,0,0
1569342907265.63,295.82,0,0,0,0,0
1569342907281.25,315.23,0,0,0,0,0
1569342907296.88,321.25,0,0,0,0,0
1569342907312.5,314.42,0,0,0,0,0
1569342907328.13,296.93,0,0,0,0,0
1569342907343.75,272.23,0,0,0,0,0
1569342907359.38,244.11,0,0,0,0,0
1569342907375,215.78,0,0,0,0,0
1569342907390.63,188.96,0,0,0,0,0
1569342907406.25,163.6,0,0,0,0,0
1569342907421.88,137.84,0,0,0,0,0
1569342907437.5,108.93,0,0,0,0,0
1569342907453.13,74.3,0,0,0,0,0
1569342907468.75,33.17,0,0,0,0,0
1569342907484.38,-12.32,0,0,0,0,0
1569342907500,-57.22,0,0,0,0,0
1569342907515.63,-95.16,0,0,0,0,0
1569342907531.25,-121.27,0,0,0,0,0
1569342907546.88,-134.73,0,0,0,0,0
1569342907562.5,-139.65,0,0,0,0,0
1569342907578.13,-143.41,0,0,0,0,0
1569342907593.75,-153.17,0,0,0,0,0
1569342907609.38,-172.76,0,0,0,0,0
1569342907625,-201.38,0,0,0,0,0
1569342907640.63,-234.41,0,0,0,0,0
1569342907656.25,-265.77,0,0,0,0,0
1569342907671.88,-289.94,0,0,0,0,0
1569342907687.5,-302.95,0,0,0,0,0
1569342907703.13,-302.14,0,0,0,0,0
1569342907718.75,-285.87,0,0,0,0,0
1569342907734.38,-253.98,0,0,0,0,0
1569342907750,-208.77,0,0,0,0,0
1569342907765.63,-155.8,0,0,0,0,0
1569342907781.25,-103.44,0,0,0,0,0
1569342907796.88,-60.8,0,0,0,0,0
1569342907812.5,-35.21,0,0,0,0,0
1569342907828.13,-30.35,0,0,0,0,0
1569342907843.75,-45.47,0,0,0,0,0
1569342907859.38,-76.1,0,0,0,0,0
1569342907875,-115.74,0,0,0,0,0
1569342907890.63,-157.54,0,0,0,0,0
1569342907906.25,-195.8,0,0,0,0,0
1569342907921.88,-226.77,0,0,0,0,0
1569342907937.5,-248.52,0,0,0,0,0
1569342907953.13,-260.64,0,0,0,0,0
1569342907968.75,-263.23,0,0,0,0,0
1569342907984.38,-256.53,0,0,0,0,0
1569342908000,-241.27,0,0,0,0,0
1569342908015.63,-219.21,0,0,0,0,0
1569342908031.25,-193.62,0,0,0,0,0
1569342908046.88,-169.02,0,0,0,0,0
1569342908062.5,-150.14,0,0,0,0,0
1569342908078.13,-140.51,0,0,0,0,0
1569342908093.75,-141.2,0,0,0,0,0
1569342908109.38,-150.5,0,0,0,0,0
1569342908125,-164.98,0,0,0,0,0
1569342908140.63,-181.09,0,0,0,0,0
1569342908156.25,-196.5,0,0,0,0,0
1569342908171.88,-210.57,0,0,0,0,0
1569342908187.5,-223.44,0,0,0,0,0
1569342908203.13,-234.56,0,0,0,0,0
1569342908218.75,-241.69,0,0,0,0,0
1569342908234.38,-241.17,0,0,0,0,0
1569342908250,-229.57,0,0,0,0,0
1569342908265.63,-205.99,0,0,0,0,0
1569342908281.25,-173.34,0,0,0,0,0
1569342908296.88,-137.66,0,0,0,0,0
1569342908312.5,-105.63,0,0,0,0,0
1569342908328.13,-81.59,0,0,0,0,0
1569342908343.75,-65.51,0,0,0,0,0
1569342908359.38,-53.33,0,0,0,0,0
1569342908375,-39.36,0,0,0,0,0
1569342908390.63,-18.86,0,0,0,0,0
1569342908406.25,10.32,0,0,0,0,0
1569342908421.88,47.87,0,0,0,0,0
1569342908437.5,92.2,0,0,0,0,0
1569342908453.13,141.18,0,0,0,0,0
1569342908468.75,191.88,0,0,0,0,0
1569342908484.38,239.82,0,0,0,0,0
1569342908500,279.02,0,0,0,0,0
1569342908515.63,303.54,0,0,0,0,0
1569342908531.25,310.06,0,0,0,0,0
1569342908546.88,299.52,0,0,0,0,0
1569342908562.5,276.86,0,0,0,0,0
1569342908578.13,248.66,0,0,0,0,0
1569342908593.75,219.92,0,0,0,0,0
1569342908609.38,192.41,0,0,0,0,0
1569342908625,164.75,0,0,0,0,0
1569342908640.63,134.27,0,0,0,0,0
1569342908656.25,99.14,0,0,0,0,0
1569342908671.88,59.76,0,0,0,0,0
1569342908687.5,18.72,0,0,0,0,0
1569342908703.13,-20.03,0,0,0,0,0
1569342908718.75,-51.94,0,0,0,0,0
1569342908734.38,-72.83,0,0,0,0,0
1569342908750,-79.31,0,0,0,0,0
1569342908765.63,-69.61,0,0,0,0,0
1569342908781.25,-44.49,0,0,0,0,0
1569342908796.88,-7.81,0,0,0,0,0
1569342908812.5,34,0,0,0,0,0
1569342908828.13,73.26,0,0,0,0,0
1569342908843.75,103.4,0,0,0,0,0
1569342908859.38,121.2,0,0,0,0,0
1569342908875,127.71,0,0,0,0,0
1569342908890.63,127.46,0,0,0,0,0
1569342908906.25,126.13,0,0,0,0,0
1569342908921.88,127.63,0,0,0,0,0
1569342908937.5,131.91,0,0,0,0,0
1569342908953.13,135.03,0,0,0,0,0
1569342908968.75,131.14,0,0,0,0,0
1569342908984.38,115.72,0,0,0,0,0
1569342909000,87.98,0,0,0,0,0
1569342909015.63,51.13,0,0,0,0,0
1569342909031.25,10.85,0,0,0,0,0
1569342909046.88,-27.61,0,0,0,0,0
1569342909062.5,-61.51,0,0,0,0,0
1569342909078.13,-90.84,0,0,0,0,0
1569342909093.75,-117.43,0,0,0,0,0
1569342909109.38,-143.58,0,0,0,0,0
1569342909125,-171.26,0,0,0,0,0
1569342909140.63,-201.63,0,0,0,0,0
1569342909156.25,-234.68,0,0,0,0,0
1569342909171.88,-268.28,0,0,0,0,0
1569342909187.5,-297.58,0,0,0,0,0
1569342909203.13,-315.6,0,0,0,0,0
1569342909218.75,-315.25,0,0,0,0,0
1569342909234.38,-292.23,0,0,0,0,0
1569342909250,-247.46,0,0,0,0,0
1569342909265.63,-187.38,0,0,0,0,0
1569342909281.25,-121.74,0,0,0,0,0
1569342909296.88,-60.39,0,0,0,0,0
1569342909312.5,-10.29,0,0,0,0,0
1569342909328.13,25.78,0,0,0,0,0
1569342909343.75,48.23,0,0,0,0,0
1569342909359.38,59.13,0,0,0,0,0
1569342909375,60.92,0,0,0,0,0
1569342909390.63,56.2,0,0,0,0,0
1569342909406.25,47.84,0,0,0,0,0
1569342909421.88,38.41,0,0,0,0,0
1569342909437.5,28.89,0,0,0,0,0
1569342909453.13,17.73,0,0,0,0,0
1569342909468.75,1.05,0,0,0,0,0
1569342909484.38,-25.37,0,0,0,0,0
1569342909500,-63.37,0,0,0,0,0
1569342909515.63,-110.77,0,0,0,0,0
1569342909531.25,-161.56,0,0,0,0,0
1569342909546.88,-208.18,0,0,0,0,0
1569342909562.5,-244.5,0,0,0,0,0
1569342909578.13,-267.88,0,0,0,0,0
1569342909593.75,-278.98,0,0,0,0,0
1569342909609.38,-280.29,0,0,0,0,0
1569342909625,-274.29,0,0,0,0,0
1569342909640.63,-262.43,0,0,0,0,0
1569342909656.25,-245.47,0,0,0,0,0
1569342909671.88,-224.34,0,0,0,0,0
1569342909687.5,-200.62,0,0,0,0,0
1569342909703.13,-176.18,0,0,0,0,0
1569342909718.75,-152.37,0,0,0,0,0
1569342909734.38,-129.32,0,0,0,0,0
1569342909750,-105.97,0,0,0,0,0
1569342909765.63,-81,0,0,0,0,0
1569342909781.25,-53.55,0,0,0,0,0
1569342909796.88,-23.88,0,0,0,0,0
1569342909812.5,6.64,0,0,0,0,0
1569342909828.13,36.27,0,0,0,0,0
1569342909843.75,63.62,0,0,0,0,0
1569342909859.38,88.4,0,0,0,0,0
1569342909875,111.62,0,0,0,0,0
1569342909890.63,135.21,0,0,0,0,0
1569342909906.25,161.27,0,0,0,0,0
1569342909921.88,191.07,0,0,0,0,0
1569342909937.5,224.13,0,0,0,0,0
1569342909953.13,257.99,0,0,0,0,0
1569342909968.75,288.78,0,0,0,0,0
1569342909984.38,312.36,0,0,0,0,0
1569342910000,325.72,0,0,0,0,0
1569342910015.63,327.96,0,0,0,0,0
1569342910031.25,320.38,0,0,0,0,0
1569342910046.88,305.91,0,0,0,0,0
1569342910062.5,287.9,0,0,0,0,0
1569342910078.13,269.15,0,0,0,0,0
1569342910093.75,251.38,0,0,0,0,0
1569342910109.38,235.26,0,0,0,0,0
1569342910125,220.73,0,0,0,0,0
1569342910140.63,207.39,0,0,0,0,0
1569342910156.25,194.73,0,0,0,0,0
1569342910171.88,182.35,0,0,0,0,0
1569342910187.5,169.99,0,0,0,0,0
1569342910203.13,157.58,0,0,0,0,0
1569342910218.75,145.24,0,0,0,0,0
1569342910234.38,133.18,0,0,0,0,0
1569342910250,121.51,0,0,0,0,0
1569342910265.63,110.12,0,0,0,0,0
1569342910281.25,98.83,0,0,0,0,0
1569342910296.88,87.57,0,0,0,0,0
1569342910312.5,76.46,0,0,0,0,0
1569342910328.13,65.87,0,0,0,0,0
1569342910343.75,56.13,0,0,0,0,0
1569342910359.38,47.35,0,0,0,0,0
1569342910375,39.28,0,0,0,0,0
1569342910390.63,31.61,0,0,0,0,0
1569342910406.25,24.22,0,0,0,0,0
1569342910421.88,17.58,0,0,0,0,0
1569342910437.5,12.67,0,0,0,0,0
1569342910453.13,10.66,0,0,0,0,0
1569342910468.75,12.29,0,0,0,0,0
1569342910484.38,17.44,0,0,0,0,0
1569342910500,25.09,0,0,0,0,0
1569342910515.63,33.7,0,0,0,0,0
1569342910531.25,41.81,0,0,0,0,0
1569342910546.88,48.46,0,0,0,0,0
1569342910562.5,53.29,0,0,0,0,0
1569342910578.13,56.33,0,0,0,0,0
1569342910593.75,57.76,0,0,0,0,0
1569342910609.38,57.7,0,0,0,0,0
1569342910625,56.48,0,0,0,0,0
1569342910640.63,54.71,0,0,0,0,0
1569342910656.25,53.38,0,0,0,0,0
1569342910671.88,53.46,0,0,0,0,0
1569342910687.5,55.48,0,0,0,0,0
1569342910703.13,59.15,0,0,0,0,0
1569342910718.75,63.33,0,0,0,0,0
1569342910734.38,66.52,0,0,0,0,0
1569342910750,67.53,0,0,0,0,0
1569342910765.63,66.13,0,0,0,0,0
1569342910781.25,63,0,0,0,0,0
1569342910796.88,59.47,0,0,0,0,0
1569342910812.5,56.69,0,0,0,0,0
1569342910828.13,55.15,0,0,0,0,0
1569342910843.75,54.45,0,0,0,0,0
1569342910859.38,53.51,0,0,0,0,0
1569342910875,51.11,0,0,0,0,0
1569342910890.63,46.24,0,0,0,0,0
1569342910906.25,38.41,0,0,0,0,0
1569342910921.88,27.56,0,0,0,0,0
1569342910937.5,14.21,0,0,0,0,0
1569342910953.13,-0.47,0,0,0,0,0
1569342910968.75,-14.75,0,0,0,0,0
1569342910984.38,-26.58,0,0,0,0,0
1569342911000,-34.1,0,0,0,0,0
1569342911015.63,-36.38,0,0,0,0,0
1569342911031.25,-33.71,0,0,0,0,0
1569342911046.88,-26.93,0,0,0,0,0
1569342911062.5,-16.39,0,0,0,0,0
1569342911078.13,-1.12,0,0,0,0,0
1569342911093.75,20.71,0,0,0,0,0
1569342911109.38,50.02,0,0,0,0,0
1569342911125,85.01,0,0,0,0,0
1569342911140.63,120.49,0,0,0,0,0
1569342911156.25,149.27,0,0,0,0,0
1569342911171.88,164.83,0,0,0,0,0
1569342911187.5,163.87,0,0,0,0,0
1569342911203.13,147.07,0,0,0,0,0
1569342911218.75,117.95,0,0,0,0,0
1569342911234.38,80.97,0,0,0,0,0
1569342911250,40.16,0,0,0,0,0
1569342911265.63,-0.8,0,0,0,0,0
1569342911281.25,-37.85,0,0,0,0,0
1569342911296.88,-66.51,0,0,0,0,0
1569342911312.5,-83.14,0,0,0,0,0
1569342911328.13,-86.92,0,0,0,0,0
1569342911343.75,-81.09,0,0,0,0,0
1569342911359.38,-72.03,0,0,0,0,0
1569342911375,-66.36,0,0,0,0,0
1569342911390.63,-67.86,0,0,0,0,0
1569342911406.25,-75.77,0,0,0,0,0
1569342911421.88,-85.9,0,0,0,0,0
1569342911437.5,-93.17,0,0,0,0,0
1569342911453.13,-93.96,0,0,0,0,0
1569342911468.75,-87.47,0,0,0,0,0
1569342911484.38,-75.23,0,0,0,0,0
1569342911500,-59.63,0,0,0,0,0
1569342911515.63,-42.59,0,0,0,0,0
1569342911531.25,-25.33,0,0,0,0,0
1569342911546.88,-8.73,0,0,0,0,0
1569342911562.5,5.98,0,0,0,0,0
1569342911578.13,17.07,0,0,0,0,0
1569342911593.75,22.77,0,0,0,0,0
1569342911609.38,22.16,0,0,0,0,0
1569342911625,15.98,0,0,0,0,0
1569342911640.63,6.68,0,0,0,0,0
1569342911656.25,-2.21,0,0,0,0,0
1569342911671.88,-7.66,0,0,0,0,0
1569342911687.5,-8.57,0,0,0,0,0
1569342911703.13,-6.52,0,0,0,0,0
1569342911718.75,-5.01,0,0,0,0,0
1569342911734.38,-7.4,0,0,0,0,0
1569342911750,-15.18,0,0,0,0,0
1569342911765.63,-27.28,0,0,0,0,0
1569342911781.25,-41.04,0,0,0,0,0
1569342911796.88,-54.05,0,0,0,0,0
1569342911812.5,-65.42,0,0,0,0,0
1569342911828.13,-75.6,0,0,0,0,0
1569342911843.75,-85.4,0,0,0,0,0
1569342911859.38,-94.54,0,0,0,0,0
1569342911875,-101.52,0,0,0,0,0
1569342911890.63,-104.67,0,0,0,0,0
1569342911906.25,-103.4,0,0,0,0,0
1569342911921.88,-99.1,0,0,0,0,0
1569342911937.5,-94.41,0,0,0,0,0
1569342911953.13,-91.74,0,0,0,0,0
1569342911968.75,-91.87,0,0,0,0,0
1569342911984.38,-93.86,0,0,0,0,0
1569342912000,-95.98,0,0,0,0,0
1569342912015.63,-97.06,0,0,0,0,0
1569342912031.25,-97.14,0,0,0,0,0
1569342912046.88,-96.98,0,0,0,0,0
1569342912062.5,-97.06,0,0,0,0,0
1569342912078.13,-96.79,0,0,0,0,0
1569342912093.75,-94.64,0,0,0,0,0
1569342912109.38,-88.89,0,0,0,0,0
1569342912125,-78.49,0,0,0,0,0
1569342912140.63,-63.65,0,0,0,0,0
1569342912156.25,-45.87,0,0,0,0,0
1569342912171.88,-27.64,0,0,0,0,0
1569342912187.5,-11.71,0,0,0,0,0
1569342912203.13,-0.46,0,0,0,0,0
1569342912218.75,4.72,0,0,0,0,0
1569342912234.38,3.82,0,0,0,0,0
1569342912250,-1.78,0,0,0,0,0
1569342912265.63,-9.56,0,0,0,0,0
1569342912281.25,-16.63,0,0,0,0,0
1569342912296.88,-20.62,0,0,0,0,0
1569342912312.5,-20.38,0,0,0,0,0
1569342912328.13,-15.92,0,0,0,0,0
1569342912343.75,-8.24,0,0,0,0,0
1569342912359.38,1.33,0,0,0,0,0
1569342912375,11.68,0,0,0,0,0
1569342912390.63,22.09,0,0,0,0,0
1569342912406.25,32.2,0,0,0,0,0
1569342912421.88,41.56,0,0,0,0,0
1569342912437.5,49.43,0,0,0,0,0
1569342912453.13,54.83,0,0,0,0,0
1569342912468.75,56.88,0,0,0,0,0
1569342912484.38,55.17,0,0,0,0,0
1569342912500,50.16,0,0,0,0,0
1569342912515.63,42.91,0,0,0,0,0
1569342912531.25,34.82,0,0,0,0,0
1569342912546.88,27.17,0,0,0,0,0
1569342912562.5,20.65,0,0,0,0,0
1569342912578.13,15.38,0,0,0,0,0
1569342912593.75,11.07,0,0,0,0,0
1569342912609.38,7.47,0,0,0,0,0
1569342912625,4.41,0,0,0,0,0
1569342912640.63,1.66,0,0,0,0,0
1569342912656.25,-1.39,0,0,0,0,0
1569342912671.88,-5.8,0,0,0,0,0
1569342912687.5,-12.82,0,0,0,0,0
1569342912703.13,-23.09,0,0,0,0,0
1569342912718.75,-36.06,0,0,0,0,0
1569342912734.38,-49.69,0,0,0,0,0
1569342912750,-61.17,0,0,0,0,0
1569342912765.63,-68.19,0,0,0,0,0
1569342912781.25,-69.99,0,0,0,0,0
1569342912796.88,-67.77,0,0,0,0,0
1569342912812.5,-63.94,0,0,0,0,0
1569342912828.13,-60.65,0,0,0,0,0
1569342912843.75,-58.59,0,0,0,0,0
1569342912859.38,-56.7,0,0,0,0,0
1569342912875,-52.99,0,0,0,0,0
1569342912890.63,-45.92,0,0,0,0,0
1569342912906.25,-35.41,0,0,0,0,0
1569342912921.88,-22.88,0,0,0,0,0
1569342912937.5,-10.44,0,0,0,0,0
1569342912953.13,0.3,0,0,0,0,0
1569342912968.75,8.96,0,0,0,0,0
1569342912984.38,16.32,0,0,0,0,0
1569342913000,23.86,0,0,0,0,0
1569342913015.63,32.78,0,0,0,0,0
1569342913031.25,43.58,0,0,0,0,0
1569342913046.88,55.77,0,0,0,0,0
1569342913062.5,68.27,0,0,0,0,0
1569342913078.13,79.74,0,0,0,0,0
1569342913093.75,88.83,0,0,0,0,0
1569342913109.38,94.69,0,0,0,0,0
1569342913125,97.18,0,0,0,0,0
1569342913140.63,97.04,0,0,0,0,0
1569342913156.25,95.93,0,0,0,0,0
1569342913171.88,96.19,0,0,0,0,0
1569342913187.5,100.22,0,0,0,0,0
1569342913203.13,109.7,0,0,0,0,0
1569342913218.75,124.69,0,0,0,0,0
1569342913234.38,143.19,0,0,0,0,0
1569342913250,161.46,0,0,0,0,0
1569342913265.63,175.15,0,0,0,0,0
1569342913281.25,180.67,0,0,0,0,0
1569342913296.88,176.48,0,0,0,0,0
1569342913312.5,163.66,0,0,0,0,0
1569342913328.13,145.39,0,0,0,0,0
1569342913343.75,125.69,0,0,0,0,0
1569342913359.38,107.64,0,0,0,0,0
1569342913375,92.08,0,0,0,0,0
1569342913390.63,77.46,0,0,0,0,0
1569342913406.25,60.89,0,0,0,0,0
1569342913421.88,40.13,0,0,0,0,0
1569342913437.5,15.32,0,0,0,0,0
1569342913453.13,-10.37,0,0,0,0,0
1569342913468.75,-31.95,0,0,0,0,0
1569342913484.38,-44.77,0,0,0,0,0
1569342913500,-46.88,0,0,0,0,0
1569342913515.63,-39.99,0,0,0,0,0
1569342913531.25,-28.51,0,0,0,0,0
1569342913546.88,-17.39,0,0,0,0,0
1569342913562.5,-9.94,0,0,0,0,0
1569342913578.13,-6.62,0,0,0,0,0
1569342913593.75,-5.71,0,0,0,0,0
1569342913609.38,-4.89,0,0,0,0,0
1569342913625,-2.7,0,0,0,0,0
1569342913640.63,0.84,0,0,0,0,0
1569342913656.25,4.66,0,0,0,0,0
1569342913671.88,7.69,0,0,0,0,0
1569342913687.5,9.54,0,0,0,0,0
1569342913703.13,10.64,0,0,0,0,0
1569342913718.75,11.98,0,0,0,0,0
1569342913734.38,14.28,0,0,0,0,0
1569342913750,17.75,0,0,0,0,0
1569342913765.63,21.83,0,0,0,0,0
1569342913781.25,25.49,0,0,0,0,0
1569342913796.88,27.44,0,0,0,0,0
1569342913812.5,26.58,0,0,0,0,0
1569342913828.13,22.4,0,0,0,0,0
1569342913843.75,15.05,0,0,0,0,0
1569342913859.38,5.39,0,0,0,0,0
1569342913875,-5.25,0,0,0,0,0
1569342913890.63,-15.44,0,0,0,0,0
1569342913906.25,-23.77,0,0,0,0,0
1569342913921.88,-29.1,0,0,0,0,0
1569342913937.5,-30.77,0,0,0,0,0
1569342913953.13,-28.8,0,0,0,0,0
1569342913968.75,-24.15,0,0,0,0,0
1569342913984.38,-18.7,0,0,0,0,0
1569342914000,-14.88,0,0,0,0,0
1569342914015.63,-14.92,0,0,0,0,0
1569342914031.25,-20.14,0,0,0,0,0
1569342914046.88,-30.16,0,0,0,0,0
1569342914062.5,-42.82,0,0,0,0,0
1569342914078.13,-54.9,0,0,0,0,0
1569342914093.75,-63.12,0,0,0,0,0
1569342914109.38,-65.45,0,0,0,0,0
1569342914125,-61.7,0,0,0,0,0
1569342914140.63,-53.27,0,0,0,0,0
1569342914156.25,-42.43,0,0,0,0,0
1569342914171.88,-31.37,0,0,0,0,0
1569342914187.5,-21.71,0,0,0,0,0
1569342914203.13,-14.49,0,0,0,0,0
1569342914218.75,-10.12,0,0,0,0,0
1569342914234.38,-8.79,0,0,0,0,0
1569342914250,-10.14,0,0,0,0,0
1569342914265.63,-13.37,0,0,0,0,0
1569342914281.25,-17.26,0,0,0,0,0
1569342914296.88,-20.45,0,0,0,0,0
1569342914312.5,-22.14,0,0,0,0,0
1569342914328.13,-22.26,0,0,0,0,0
1569342914343.75,-21.51,0,0,0,0,0
1569342914359.38,-20.64,0,0,0,0,0
1569342914375,-20.03,0,0,0,0,0
1569342914390.63,-19.43,0,0,0,0,0
1569342914406.25,-18.39,0,0,0,0,0
1569342914421.88,-16.69,0,0,0,0,0
1569342914437.5,-14.52,0,0,0,0,0
1569342914453.13,-12.46,0,0,0,0,0
1569342914468.75,-10.73,0,0,0,0,0
1569342914484.38,-8.83,0,0,0,0,0
1569342914500,-5.43,0,0,0,0,0
1569342914515.63,1.02,0,0,0,0,0
1569342914531.25,11.48,0,0,0,0,0
1569342914546.88,25.55,0,0,0,0,0
1569342914562.5,41.53,0,0,0,0,0
1569342914578.13,57.07,0,0,0,0,0
1569342914593.75,70.21,0,0,0,0,0
1569342914609.38,80.25,0,0,0,0,0
1569342914625,87.8,0,0,0,0,0
1569342914640.63,94.25,0,0,0,0,0
1569342914656.25,100.91,0,0,0,0,0
1569342914671.88,108.42,0,0,0,0,0
1569342914687.5,116.48,0,0,0,0,0
1569342914703.13,124.05,0,0,0,0,0
1569342914718.75,129.86,0,0,0,0,0
1569342914734.38,132.56,0,0,0,0,0
1569342914750,131.17,0,0,0,0,0
1569342914765.63,125.18,0,0,0,0,0
1569342914781.25,114.78,0,0,0,0,0
1569342914796.88,100.86,0,0,0,0,0
1569342914812.5,85.03,0,0,0,0,0
1569342914828.13,69.17,0,0,0,0,0
1569342914843.75,54.81,0,0,0,0,0
1569342914859.38,42.58,0,0,0,0,0
1569342914875,32.06,0,0,0,0,0
1569342914890.63,22.11,0,0,0,0,0
1569342914906.25,11.24,0,0,0,0,0
1569342914921.88,-1.87,0,0,0,0,0
1569342914937.5,-18.13,0,0,0,0,0
1569342914953.13,-37.85,0,0,0,0,0
1569342914968.75,-60.59,0,0,0,0,0
1569342914984.38,-85.16,0,0,0,0,0
1569342915000,-109.67,0,0,0,0,0
1569342915015.63,-131.94,0,0,0,0,0
1569342915031.25,-150.07,0,0,0,0,0
1569342915046.88,-162.92,0,0,0,0,0
1569342915062.5,-170.3,0,0,0,0,0
1569342915078.13,-172.75,0,0,0,0,0
1569342915093.75,-171.13,0,0,0,0,0
1569342915109.38,-166.31,0,0,0,0,0
1569342915125,-158.99,0,0,0,0,0
1569342915140.63,-149.85,0,0,0,0,0
1569342915156.25,-139.62,0,0,0,0,0
1569342915171.88,-129.05,0,0,0,0,0
1569342915187.5,-118.57,0,0,0,0,0
1569342915203.13,-108.2,0,0,0,0,0
1569342915218.75,-97.48,0,0,0,0,0
1569342915234.38,-85.82,0,0,0,0,0
1569342915250,-72.89,0,0,0,0,0
1569342915265.63,-58.94,0,0,0,0,0
1569342915281.25,-44.6,0,0,0,0,0
1569342915296.88,-30.6,0,0,0,0,0
1569342915312.5,-17.33,0,0,0,0,0
1569342915328.13,-4.58,0,0,0,0,0
1569342915343.75,8.43,0,0,0,0,0
1569342915359.38,22.75,0,0,0,0,0
1569342915375,39.12,0,0,0,0,0
1569342915390.63,57.61,0,0,0,0,0
1569342915406.25,77.38,0,0,0,0,0
1569342915421.88,96.97,0,0,0,0,0
1569342915437.5,114.71,0,0,0,0,0
1569342915453.13,129.34,0,0,0,0,0
1569342915468.75,140.18,0,0,0,0,0
1569342915484.38,146.84,0,0,0,0,0
1569342915500,148.56,0,0,0,0,0
1569342915515.63,143.87,0,0,0,0,0
1569342915531.25,131.18,0,0,0,0,0
1569342915546.88,109.84,0,0,0,0,0
1569342915562.5,81.42,0,0,0,0,0
1569342915578.13,49.92,0,0,0,0,0
1569342915593.75,20.48,0,0,0,0,0
1569342915609.38,-3.08,0,0,0,0,0
1569342915625,-20.31,0,0,0,0,0
1569342915640.63,-34.22,0,0,0,0,0
1569342915656.25,-49.48,0,0,0,0,0
1569342915671.88,-69.38,0,0,0,0,0
1569342915687.5,-93.33,0,0,0,0,0
1569342915703.13,-116.79,0,0,0,0,0
1569342915718.75,-133.32,0,0,0,0,0
1569342915734.38,-137.68,0,0,0,0,0
1569342915750,-127.95,0,0,0,0,0
1569342915765.63,-105.76,0,0,0,0,0
1569342915781.25,-74.93,0,0,0,0,0
1569342915796.88,-39.85,0,0,0,0,0
1569342915812.5,-4.38,0,0,0,0,0
1569342915828.13,28.48,0,0,0,0,0
1569342915843.75,56.5,0,0,0,0,0
1569342915859.38,78.54,0,0,0,0,0
1569342915875,94.93,0,0,0,0,0
1569342915890.63,107.75,0,0,0,0,0
1569342915906.25,120.28,0,0,0,0,0
1569342915921.88,135.46,0,0,0,0,0
1569342915937.5,154.13,0,0,0,0,0
1569342915953.13,174.05,0,0,0,0,0
1569342915968.75,190.48,0,0,0,0,0
1569342915984.38,197.67,0,0,0,0,0
1569342916000,190.9,0,0,0,0,0
1569342916015.63,167.82,0,0,0,0,0
1569342916031.25,128.62,0,0,0,0,0
1569342916046.88,75.97,0,0,0,0,0
1569342916062.5,14.74,0,0,0,0,0
1569342916078.13,-48.48,0,0,0,0,0
1569342916093.75,-106.33,0,0,0,0,0
1569342916109.38,-152.11,0,0,0,0,0
1569342916125,-181.66,0,0,0,0,0
1569342916140.63,-194.33,0,0,0,0,0
1569342916156.25,-192.68,0,0,0,0,0
1569342916171.88,-181.15,0,0,0,0,0
1569342916187.5,-164.08,0,0,0,0,0
1569342916203.13,-144.47,0,0,0,0,0
1569342916218.75,-123.92,0,0,0,0,0
1569342916234.38,-103.49,0,0,0,0,0
1569342916250,-84.56,0,0,0,0,0
1569342916265.63,-69.08,0,0,0,0,0
1569342916281.25,-58.64,0,0,0,0,0
1569342916296.88,-53.51,0,0,0,0,0
1569342916312.5,-52.31,0,0,0,0,0
1569342916328.13,-52.51,0,0,0,0,0
1569342916343.75,-51.66,0,0,0,0,0
1569342916359.38,-48.33,0,0,0,0,0
1569342916375,-42.49,0,0,0,0,0
1569342916390.63,-34.96,0,0,0,0,0
1569342916406.25,-26.78,0,0,0,0,0
1569342916421.88,-18.88,0,0,0,0,0
1569342916437.5,-11.77,0,0,0,0,0
1569342916453.13,-5.46,0,0,0,0,0
1569342916468.75,0.68,0,0,0,0,0
1569342916484.38,7.63,0,0,0,0,0
1569342916500,16.22,0,0,0,0,0
1569342916515.63,26.6,0,0,0,0,0
1569342916531.25,37.7,0,0,0,0,0
1569342916546.88,47.48,0,0,0,0,0
1569342916562.5,53.57,0,0,0,0,0
1569342916578.13,54.28,0,0,0,0,0
1569342916593.75,49.17,0,0,0,0,0
1569342916609.38,39,0,0,0,0,0
1569342916625,25.39,0,0,0,0,0
1569342916640.63,10.14,0,0,0,0,0
1569342916656.25,-5.24,0,0,0,0,0
1569342916671.88,-19.75,0,0,0,0,0
1569342916687.5,-33.12,0,0,0,0,0
1569342916703.13,-45.94,0,0,0,0,0
1569342916718.75,-59.75,0,0,0,0,0
1569342916734.38,-76.86,0,0,0,0,0
1569342916750,-99.53,0,0,0,0,0
1569342916765.63,-128.86,0,0,0,0,0
1569342916781.25,-163.79,0,0,0,0,0
1569342916796.88,-200.95,0,0,0,0,0
1569342916812.5,-235.26,0,0,0,0,0
1569342916828.13,-261.42,0,0,0,0,0
1569342916843.75,-275.56,0,0,0,0,0
1569342916859.38,-276,0,0,0,0,0
1569342916875,-263.84,0,0,0,0,0
1569342916890.63,-242.23,0,0,0,0,0
1569342916906.25,-215.2,0,0,0,0,0
1569342916921.88,-186.45,0,0,0,0,0
1569342916937.5,-158.32,0,0,0,0,0
1569342916953.13,-131.33,0,0,0,0,0
1569342916968.75,-104.33,0,0,0,0,0
1569342916984.38,-75.57,0,0,0,0,0
1569342917000,-43.52,0,0,0,0,0
1569342917015.63,-7.7,0,0,0,0,0
1569342917031.25,30.9,0,0,0,0,0
1569342917046.88,70.35,0,0,0,0,0
1569342917062.5,108.27,0,0,0,0,0
1569342917078.13,142.5,0,0,0,0,0
1569342917093.75,171.67,0,0,0,0,0
1569342917109.38,195.34,0,0,0,0,0
1569342917125,214.04,0,0,0,0,0
1569342917140.63,229.06,0,0,0,0,0
1569342917156.25,241.92,0,0,0,0,0
1569342917171.88,253.86,0,0,0,0,0
1569342917187.5,265.35,0,0,0,0,0
1569342917203.13,275.96,0,0,0,0,0
1569342917218.75,284.35,0,0,0,0,0
1569342917234.38,288.69,0,0,0,0,0
1569342917250,287.05,0,0,0,0,0
1569342917265.63,277.87,0,0,0,0,0
1569342917281.25,260.4,0,0,0,0,0
1569342917296.88,234.82,0,0,0,0,0
1569342917312.5,202.37,0,0,0,0,0
1569342917328.13,165.11,0,0,0,0,0
1569342917343.75,125.45,0,0,0,0,0
1569342917359.38,85.62,0,0,0,0,0
1569342917375,47.25,0,0,0,0,0
1569342917390.63,11.29,0,0,0,0,0
1569342917406.25,-21.84,0,0,0,0,0
1569342917421.88,-51.83,0,0,0,0,0
1569342917437.5,-78.68,0,0,0,0,0
1569342917453.13,-102.93,0,0,0,0,0
1569342917468.75,-125.8,0,0,0,0,0
1569342917484.38,-148.98,0,0,0,0,0
1569342917500,-173.85,0,0,0,0,0
1569342917515.63,-200.6,0,0,0,0,0
1569342917531.25,-227.85,0,0,0,0,0
1569342917546.88,-252.82,0,0,0,0,0
1569342917562.5,-271.99,0,0,0,0,0
1569342917578.13,-281.85,0,0,0,0,0
1569342917593.75,-279.3,0,0,0,0,0
1569342917609.38,-261.76,0,0,0,0,0
1569342917625,-227.34,0,0,0,0,0
1569342917640.63,-175.6,0,0,0,0,0
1569342917656.25,-108.49,0,0,0,0,0
1569342917671.88,-31.44,0,0,0,0,0
1569342917687.5,47.07,0,0,0,0,0
1569342917703.13,117.09,0,0,0,0,0
1569342917718.75,169.98,0,0,0,0,0
1569342917734.38,200.93,0,0,0,0,0
1569342917750,210.09,0,0,0,0,0
1569342917765.63,201.66,0,0,0,0,0
1569342917781.25,181.5,0,0,0,0,0
1569342917796.88,154.91,0,0,0,0,0
1569342917812.5,125.26,0,0,0,0,0
1569342917828.13,94.33,0,0,0,0,0
1569342917843.75,63.71,0,0,0,0,0
1569342917859.38,35.74,0,0,0,0,0
1569342917875,13.68,0,0,0,0,0
1569342917890.63,0.5,0,0,0,0,0
1569342917906.25,-2.51,0,0,0,0,0
1569342917921.88,3.53,0,0,0,0,0
1569342917937.5,15.46,0,0,0,0,0
1569342917953.13,29.27,0,0,0,0,0
1569342917968.75,41.2,0,0,0,0,0
1569342917984.38,48.2,0,0,0,0,0
1569342918000,47.88,0,0,0,0,0
1569342918015.63,38.27,0,0,0,0,0
1569342918031.25,18.15,0,0,0,0,0
1569342918046.88,-12.12,0,0,0,0,0
1569342918062.5,-49.68,0,0,0,0,0
1569342918078.13,-89.16,0,0,0,0,0
1569342918093.75,-123.76,0,0,0,0,0
1569342918109.38,-147.36,0,0,0,0,0
1569342918125,-156.44,0,0,0,0,0
1569342918140.63,-151.13,0,0,0,0,0
1569342918156.25,-134.75,0,0,0,0,0
1569342918171.88,-112.2,0,0,0,0,0
1569342918187.5,-88.13,0,0,0,0,0
1569342918203.13,-65.66,0,0,0,0,0
1569342918218.75,-46.05,0,0,0,0,0
1569342918234.38,-29.18,0,0,0,0,0
1569342918250,-14.29,0,0,0,0,0
1569342918265.63,-0.52,0,0,0,0,0
1569342918281.25,12.76,0,0,0,0,0
1569342918296.88,26.28,0,0,0,0,0
1569342918312.5,40.78,0,0,0,0,0
1569342918328.13,57.02,0,0,0,0,0
1569342918343.75,75.26,0,0,0,0,0
1569342918359.38,95.09,0,0,0,0,0
1569342918375,115.34,0,0,0,0,0
1569342918390.63,134.09,0,0,0,0,0
1569342918406.25,149.2,0,0,0,0,0
1569342918421.88,158.39,0,0,0,0,0
1569342918437.5,159.65,0,0,0,0,0
1569342918453.13,151.12,0,0,0,0,0
1569342918468.75,131.49,0,0,0,0,0
1569342918484.38,100.25,0,0,0,0,0
1569342918500,58.37,0,0,0,0,0
1569342918515.63,8.91,0,0,0,0,0
1569342918531.25,-42.62,0,0,0,0,0
1569342918546.88,-88.58,0,0,0,0,0
1569342918562.5,-120.84,0,0,0,0,0
1569342918578.13,-133.18,0,0,0,0,0
1569342918593.75,-123.79,0,0,0,0,0
1569342918609.38,-96.51,0,0,0,0,0
1569342918625,-60.24,0,0,0,0,0
1569342918640.63,-25.91,0,0,0,0,0
1569342918656.25,-2.91,0,0,0,0,0
1569342918671.88,4.1,0,0,0,0,0
1569342918687.5,-3.77,0,0,0,0,0
1569342918703.13,-21.06,0,0,0,0,0
1569342918718.75,-40.99,0,0,0,0,0
1569342918734.38,-58.42,0,0,0,0,0
1569342918750,-71.33,0,0,0,0,0
1569342918765.63,-80.41,0,0,0,0,0
1569342918781.25,-87.57,0,0,0,0,0
1569342918796.88,-94.35,0,0,0,0,0
1569342918812.5,-101.16,0,0,0,0,0
1569342918828.13,-107.54,0,0,0,0,0
1569342918843.75,-112.85,0,0,0,0,0
1569342918859.38,-116.34,0,0,0,0,0
1569342918875,-116.78,0,0,0,0,0
1569342918890.63,-112.01,0,0,0,0,0
1569342918906.25,-99.07,0,0,0,0,0
1569342918921.88,-75.47,0,0,0,0,0
1569342918937.5,-40.74,0,0,0,0,0
1569342918953.13,2.04,0,0,0,0,0
1569342918968.75,46.55,0,0,0,0,0
1569342918984.38,84.92,0,0,0,0,0
1569342919000,110.52,0,0,0,0,0
1569342919015.63,120.19,0,0,0,0,0
1569342919031.25,114.84,0,0,0,0,0
1569342919046.88,98.46,0,0,0,0,0
1569342919062.5,76,0,0,0,0,0
1569342919078.13,51.49,0,0,0,0,0
1569342919093.75,27.31,0,0,0,0,0
1569342919109.38,4.58,0,0,0,0,0
1569342919125,-16.01,0,0,0,0,0
1569342919140.63,-33.44,0,0,0,0,0
1569342919156.25,-46.35,0,0,0,0,0
1569342919171.88,-53.63,0,0,0,0,0
1569342919187.5,-55.06,0,0,0,0,0
1569342919203.13,-51.23,0,0,0,0,0
1569342919218.75,-43.38,0,0,0,0,0
1569342919234.38,-32.74,0,0,0,0,0
1569342919250,-20.02,0,0,0,0,0
1569342919265.63,-5.48,0,0,0,0,0
1569342919281.25,10.78,0,0,0,0,0
1569342919296.88,28.2,0,0,0,0,0
1569342919312.5,45.67,0,0,0,0,0
1569342919328.13,61.81,0,0,0,0,0
1569342919343.75,75.56,0,0,0,0,0
1569342919359.38,86.53,0,0,0,0,0
1569342919375,94.97,0,0,0,0,0
1569342919390.63,101.36,0,0,0,0,0
1569342919406.25,105.74,0,0,0,0,0
1569342919421.88,107.5,0,0,0,0,0
1569342919437.5,105.78,0,0,0,0,0
1569342919453.13,99.91,0,0,0,0,0
1569342919468.75,90.06,0,0,0,0,0
1569342919484.38,77.34,0,0,0,0,0
1569342919500,63.3,0,0,0,0,0
1569342919515.63,49.6,0,0,0,0,0
1569342919531.25,37.28,0,0,0,0,0
1569342919546.88,26.59,0,0,0,0,0
1569342919562.5,16.89,0,0,0,0,0
1569342919578.13,6.98,0,0,0,0,0
1569342919593.75,-4.56,0,0,0,0,0
1569342919609.38,-18.88,0,0,0,0,0
1569342919625,-36.29,0,0,0,0,0
1569342919640.63,-55.88,0,0,0,0,0
1569342919656.25,-75.53,0,0,0,0,0
1569342919671.88,-92.54,0,0,0,0,0
1569342919687.5,-104.7,0,0,0,0,0
1569342919703.13,-111.13,0,0,0,0,0
1569342919718.75,-112.53,0,0,0,0,0
1569342919734.38,-110.81,0,0,0,0,0
1569342919750,-108.07,0,0,0,0,0
1569342919765.63,-105.83,0,0,0,0,0
1569342919781.25,-104.63,0,0,0,0,0
1569342919796.88,-104.09,0,0,0,0,0
1569342919812.5,-103.39,0,0,0,0,0
1569342919828.13,-101.61,0,0,0,0,0
1569342919843.75,-97.88,0,0,0,0,0
1569342919859.38,-91.7,0,0,0,0,0
1569342919875,-82.9,0,0,0,0,0
1569342919890.63,-71.89,0,0,0,0,0
1569342919906.25,-59.86,0,0,0,0,0
1569342919921.88,-48.59,0,0,0,0,0
1569342919937.5,-40.05,0,0,0,0,0
1569342919953.13,-35.64,0,0,0,0,0
1569342919968.75,-35.72,0,0,0,0,0
1569342919984.38,-39.51,0,0,0,0,0
1569342920000,-45.26,0,0,0,0,0
1569342920015.63,-50.8,0,0,0,0,0
1569342920031.25,-53.94,0,0,0,0,0
1569342920046.88,-52.94,0,0,0,0,0
1569342920062.5,-46.56,0,0,0,0,0
1569342920078.13,-34.31,0,0,0,0,0
1569342920093.75,-16.59,0,0,0,0,0
1569342920109.38,5.32,0,0,0,0,0
1569342920125,29.42,0,0,0,0,0
1569342920140.63,53.51,0,0,0,0,0
1569342920156.25,76,0,0,0,0,0
1569342920171.88,96.21,0,0,0,0,0
1569342920187.5,114.35,0,0,0,0,0
1569342920203.13,130.94,0,0,0,0,0
1569342920218.75,146.05,0,0,0,0,0
1569342920234.38,158.91,0,0,0,0,0
1569342920250,168.17,0,0,0,0,0
1569342920265.63,172.72,0,0,0,0,0
1569342920281.25,172.38,0,0,0,0,0
1569342920296.88,168.11,0,0,0,0,0
1569342920312.5,161.59,0,0,0,0,0
1569342920328.13,154.33,0,0,0,0,0
1569342920343.75,147.12,0,0,0,0,0
1569342920359.38,139.85,0,0,0,0,0
1569342920375,132.1,0,0,0,0,0
1569342920390.63,123.69,0,0,0,0,0
1569342920406.25,114.93,0,0,0,0,0
1569342920421.88,106.42,0,0,0,0,0
1569342920437.5,98.41,0,0,0,0,0
1569342920453.13,90.6,0,0,0,0,0
1569342920468.75,82.21,0,0,0,0,0
1569342920484.38,72.47,0,0,0,0,0
1569342920500,61.1,0,0,0,0,0
1569342920515.63,48.55,0,0,0,0,0
1569342920531.25,35.91,0,0,0,0,0
1569342920546.88,24.31,0,0,0,0,0
1569342920562.5,14.61,0,0,0,0,0
1569342920578.13,7.06,0,0,0,0,0
1569342920593.75,1.21,0,0,0,0,0
1569342920609.38,-3.77,0,0,0,0,0
1569342920625,-8.67,0,0,0,0,0
1569342920640.63,-13.93,0,0,0,0,0
1569342920656.25,-19.28,0,0,0,0,0
1569342920671.88,-23.85,0,0,0,0,0
1569342920687.5,-26.6,0,0,0,0,0
1569342920703.13,-26.89,0,0,0,0,0
1569342920718.75,-24.77,0,0,0,0,0
1569342920734.38,-21.11,0,0,0,0,0
1569342920750,-17.12,0,0,0,0,0
1569342920765.63,-13.88,0,0,0,0,0
1569342920781.25,-11.88,0,0,0,0,0
1569342920796.88,-10.93,0,0,0,0,0
1569342920812.5,-10.53,0,0,0,0,0
1569342920828.13,-10.25,0,0,0,0,0
1569342920843.75,-9.91,0,0,0,0,0
1569342920859.38,-9.72,0,0,0,0,0
1569342920875,-10.08,0,0,0,0,0
1569342920890.63,-11.28,0,0,0,0,0
1569342920906.25,-13.32,0,0,0,0,0
1569342920921.88,-15.88,0,0,0,0,0
1569342920937.5,-18.4,0,0,0,0,0
1569342920953.13,-20.39,0,0,0,0,0
1569342920968.75,-21.63,0,0,0,0,0
1569342920984.38,-22.26,0,0,0,0,0
1569342921000,-22.63,0,0,0,0,0
1569342921015.63,-23.26,0,0,0,0,0
1569342921031.25,-24.41,0,0,0,0,0
1569342921046.88,-26.09,0,0,0,0,0
1569342921062.5,-28.09,0,0,0,0,0
1569342921078.13,-30.19,0,0,0,0,0
1569342921093.75,-32.42,0,0,0,0,0
1569342921109.38,-35.03,0,0,0,0,0
1569342921125,-38.38,0,0,0,0,0
1569342921140.63,-42.69,0,0,0,0,0
1569342921156.25,-47.97,0,0,0,0,0
1569342921171.88,-53.82,0,0,0,0,0
1569342921187.5,-59.64,0,0,0,0,0
1569342921203.13,-64.67,0,0,0,0,0
1569342921218.75,-68.22,0,0,0,0,0
1569342921234.38,-69.75,0,0,0,0,0
1569342921250,-68.93,0,0,0,0,0
1569342921265.63,-65.74,0,0,0,0,0
1569342921281.25,-60.46,0,0,0,0,0
1569342921296.88,-53.62,0,0,0,0,0
1569342921312.5,-45.8,0,0,0,0,0
1569342921328.13,-37.64,0,0,0,0,0
1569342921343.75,-29.6,0,0,0,0,0
1569342921359.38,-22,0,0,0,0,0
1569342921375,-14.98,0,0,0,0,0
1569342921390.63,-8.63,0,0,0,0,0
1569342921406.25,-3.05,0,0,0,0,0
1569342921421.88,1.65,0,0,0,0,0
1569342921437.5,5.37,0,0,0,0,0
1569342921453.13,8.08,0,0,0,0,0
1569342921468.75,9.82,0,0,0,0,0
1569342921484.38,10.78,0,0,0,0,0
1569342921500,11.26,0,0,0,0,0
1569342921515.63,11.61,0,0,0,0,0
1569342921531.25,12.16,0,0,0,0,0
1569342921546.88,13.09,0,0,0,0,0
1569342921562.5,14.43,0,0,0,0,0
1569342921578.13,15.96,0,0,0,0,0
1569342921593.75,17.35,0,0,0,0,0
1569342921609.38,18.14,0,0,0,0,0
1569342921625,17.98,0,0,0,0,0
1569342921640.63,16.74,0,0,0,0,0
1569342921656.25,14.56,0,0,0,0,0
1569342921671.88,11.84,0,0,0,0,0
1569342921687.5,8.94,0,0,0,0,0
1569342921703.13,6.26,0,0,0,0,0
1569342921718.75,3.82,0,0,0,0,0
1569342921734.38,1.52,0,0,0,0,0
1569342921750,-0.92,0,0,0,0,0
1569342921765.63,-3.76,0,0,0,0,0
1569342921781.25,-7.15,0,0,0,0,0
1569342921796.88,-11.06,0,0,0,0,0
1569342921812.5,-15.21,0,0,0,0,0
1569342921828.13,-19.22,0,0,0,0,0
1569342921843.75,-22.45,0,0,0,0,0
1569342921859.38,-24.23,0,0,0,0,0
1569342921875,-23.98,0,0,0,0,0
1569342921890.63,-21.31,0,0,0,0,0
1569342921906.25,-16.33,0,0,0,0,0
1569342921921.88,-9.6,0,0,0,0,0
1569342921937.5,-2.07,0,0,0,0,0
1569342921953.13,5.15,0,0,0,0,0
1569342921968.75,11.11,0,0,0,0,0
1569342921984.38,15.25,0,0,0,0,0
1569342922000,17.46,0,0,0,0,0
1569342922015.63,18.03,0,0,0,0,0
1569342922031.25,17.4,0,0,0,0,0
1569342922046.88,15.98,0,0,0,0,0
1569342922062.5,14.06,0,0,0,0,0
1569342922078.13,11.77,0,0,0,0,0
1569342922093.75,9.18,0,0,0,0,0
1569342922109.38,6.39,0,0,0,0,0
1569342922125,3.66,0,0,0,0,0
1569342922140.63,1.23,0,0,0,0,0
1569342922156.25,-0.6,0,0,0,0,0
1569342922171.88,-1.78,0,0,0,0,0
1569342922187.5,-2.45,0,0,0,0,0
1569342922203.13,-2.87,0,0,0,0,0
1569342922218.75,-3.34,0,0,0,0,0
1569342922234.38,-4.06,0,0,0,0,0
1569342922250,-5.08,0,0,0,0,0
1569342922265.63,-6.35,0,0,0,0,0
1569342922281.25,-7.84,0,0,0,0,0
1569342922296.88,-9.57,0,0,0,0,0
1569342922312.5,-11.51,0,0,0,0,0
1569342922328.13,-13.74,0,0,0,0,0
1569342922343.75,-16.18,0,0,0,0,0
1569342922359.38,-18.71,0,0,0,0,0
1569342922375,-21.15,0,0,0,0,0
1569342922390.63,-23.42,0,0,0,0,0
1569342922406.25,-25.56,0,0,0,0,0
1569342922421.88,-27.64,0,0,0,0,0
1569342922437.5,-29.66,0,0,0,0,0
1569342922453.13,-31.5,0,0,0,0,0
1569342922468.75,-32.88,0,0,0,0,0
1569342922484.38,-33.35,0,0,0,0,0
1569342922500,-32.5,0,0,0,0,0
1569342922515.63,-30.04,0,0,0,0,0
1569342922531.25,-25.91,0,0,0,0,0
1569342922546.88,-20.32,0,0,0,0,0
1569342922562.5,-13.67,0,0,0,0,0
1569342922578.13,-6.49,0,0,0,0,0
1569342922593.75,0.62,0,0,0,0,0
1569342922609.38,7.22,0,0,0,0,0
1569342922625,13,0,0,0,0,0
1569342922640.63,17.94,0,0,0,0,0
1569342922656.25,22.2,0,0,0,0,0
1569342922671.88,25.82,0,0,0,0,0
1569342922687.5,28.78,0,0,0,0,0
1569342922703.13,30.87,0,0,0,0,0
1569342922718.75,31.94,0,0,0,0,0
1569342922734.38,32.11,0,0,0,0,0
1569342922750,31.9,0,0,0,0,0
1569342922765.63,32,0,0,0,0,0
1569342922781.25,32.82,0,0,0,0,0
1569342922796.88,34.19,0,0,0,0,0
1569342922812.5,35.32,0,0,0,0,0
1569342922828.13,35.26,0,0,0,0,0
1569342922843.75,33.45,0,0,0,0,0
1569342922859.38,29.99,0,0,0,0,0
1569342922875,25.76,0,0,0,0,0
1569342922890.63,21.75,0,0,0,0,0
1569342922906.25,18.63,0,0,0,0,0
1569342922921.88,16.47,0,0,0,0,0
1569342922937.5,14.86,0,0,0,0,0
1569342922953.13,13.22,0,0,0,0,0
1569342922968.75,11.14,0,0,0,0,0
1569342922984.38,8.36,0,0,0,0,0
1569342923000,4.75,0,0,0,0,0
1569342923015.63,0.23,0,0,0,0,0
1569342923031.25,-5.22,0,0,0,0,0
1569342923046.88,-11.31,0,0,0,0,0
1569342923062.5,-17.43,0,0,0,0,0
1569342923078.13,-22.67,0,0,0,0,0
1569342923093.75,-26.15,0,0,0,0,0
1569342923109.38,-27.27,0,0,0,0,0
1569342923125,-25.92,0,0,0,0,0
1569342923140.63,-22.37,0,0,0,0,0
1569342923156.25,-17.23,0,0,0,0,0
1569342923171.88,-11.2,0,0,0,0,0
1569342923187.5,-5.13,0,0,0,0,0
1569342923203.13,0.17,0,0,0,0,0
1569342923218.75,4.02,0,0,0,0,0
1569342923234.38,6,0,0,0,0,0
1569342923250,6.21,0,0,0,0,0
1569342923265.63,5.19,0,0,0,0,0
1569342923281.25,3.8,0,0,0,0,0
1569342923296.88,2.89,0,0,0,0,0
1569342923312.5,2.96,0,0,0,0,0
1569342923328.13,4.02,0,0,0,0,0
1569342923343.75,5.73,0,0,0,0,0
1569342923359.38,7.63,0,0,0,0,0
1569342923375,9.35,0,0,0,0,0
1569342923390.63,10.79,0,0,0,0,0
1569342923406.25,11.94,0,0,0,0,0
1569342923421.88,12.65,0,0,0,0,0
1569342923437.5,12.77,0,0,0,0,0
1569342923453.13,12.09,0,0,0,0,0
1569342923468.75,10.58,0,0,0,0,0
1569342923484.38,8.39,0,0,0,0,0
1569342923500,5.79,0,0,0,0,0
1569342923515.63,2.99,0,0,0,0,0
1569342923531.25,0.01,0,0,0,0,0
1569342923546.88,-3.41,0,0,0,0,0
1569342923562.5,-7.64,0,0,0,0,0
1569342923578.13,-12.92,0,0,0,0,0
1569342923593.75,-19.13,0,0,0,0,0
1569342923609.38,-25.61,0,0,0,0,0
1569342923625,-31.3,0,0,0,0,0
1569342923640.63,-34.97,0,0,0,0,0
1569342923656.25,-35.74,0,0,0,0,0
1569342923671.88,-33.15,0,0,0,0,0
1569342923687.5,-27.52,0,0,0,0,0
1569342923703.13,-19.6,0,0,0,0,0
1569342923718.75,-10.51,0,0,0,0,0
1569342923734.38,-1.33,0,0,0,0,0
1569342923750,6.98,0,0,0,0,0
1569342923765.63,13.63,0,0,0,0,0
1569342923781.25,18.12,0,0,0,0,0
1569342923796.88,20.1,0,0,0,0,0
1569342923812.5,19.72,0,0,0,0,0
1569342923828.13,17.48,0,0,0,0,0
1569342923843.75,14.35,0,0,0,0,0
1569342923859.38,11.45,0,0,0,0,0
1569342923875,9.59,0,0,0,0,0
1569342923890.63,9.17,0,0,0,0,0
1569342923906.25,9.96,0,0,0,0,0
1569342923921.88,11.31,0,0,0,0,0
1569342923937.5,12.51,0,0,0,0,0
1569342923953.13,13,0,0,0,0,0
1569342923968.75,12.58,0,0,0,0,0
1569342923984.38,11.26,0,0,0,0,0
1569342924000,9.23,0,0,0,0,0
1569342924015.63,6.7,0,0,0,0,0
1569342924031.25,3.87,0,0,0,0,0
1569342924046.88,0.85,0,0,0,0,0
1569342924062.5,-2.27,0,0,0,0,0
1569342924078.13,-5.6,0,0,0,0,0
1569342924093.75,-9.39,0,0,0,0,0
1569342924109.38,-14.08,0,0,0,0,0
1569342924125,-19.99,0,0,0,0,0
1569342924140.63,-27.15,0,0,0,0,0
1569342924156.25,-34.99,0,0,0,0,0
1569342924171.88,-42.36,0,0,0,0,0
1569342924187.5,-47.8,0,0,0,0,0
1569342924203.13,-49.87,0,0,0,0,0
1569342924218.75,-47.83,0,0,0,0,0
1569342924234.38,-41.8,0,0,0,0,0
1569342924250,-32.91,0,0,0,0,0
1569342924265.63,-22.96,0,0,0,0,0
1569342924281.25,-13.72,0,0,0,0,0
1569342924296.88,-6.53,0,0,0,0,0
1569342924312.5,-1.69,0,0,0,0,0
1569342924328.13,1.27,0,0,0,0,0
1569342924343.75,3.23,0,0,0,0,0
1569342924359.38,5.04,0,0,0,0,0
1569342924375,6.98,0,0,0,0,0
1569342924390.63,8.84,0,0,0,0,0
1569342924406.25,10.13,0,0,0,0,0
1569342924421.88,10.44,0,0,0,0,0
1569342924437.5,9.64,0,0,0,0,0
1569342924453.13,8,0,0,0,0,0
1569342924468.75,6.02,0,0,0,0,0
1569342924484.38,4.15,0,0,0,0,0
1569342924500,2.78,0,0,0,0,0
1569342924515.63,2.03,0,0,0,0,0
1569342924531.25,1.97,0,0,0,0,0
1569342924546.88,2.5,0,0,0,0,0
1569342924562.5,3.29,0,0,0,0,0
1569342924578.13,3.84,0,0,0,0,0
1569342924593.75,3.6,0,0,0,0,0
1569342924609.38,2.31,0,0,0,0,0
1569342924625,0.21,0,0,0,0,0
1569342924640.63,-1.94,0,0,0,0,0
1569342924656.25,-3.07,0,0,0,0,0
1569342924671.88,-2.31,0,0,0,0,0
1569342924687.5,0.77,0,0,0,0,0
1569342924703.13,6.06,0,0,0,0,0
1569342924718.75,13.12,0,0,0,0,0
1569342924734.38,21.47,0,0,0,0,0
1569342924750,30.67,0,0,0,0,0
1569342924765.63,40.35,0,0,0,0,0
1569342924781.25,49.97,0,0,0,0,0
1569342924796.88,58.58,0,0,0,0,0
1569342924812.5,65.08,0,0,0,0,0
1569342924828.13,68.61,0,0,0,0,0
1569342924843.75,68.88,0,0,0,0,0
1569342924859.38,66.37,0,0,0,0,0
1569342924875,62.05,0,0,0,0,0
1569342924890.63,56.88,0,0,0,0,0
1569342924906.25,51.33,0,0,0,0,0
1569342924921.88,45.3,0,0,0,0,0
1569342924937.5,38.32,0,0,0,0,0
1569342924953.13,30.14,0,0,0,0,0
1569342924968.75,21.11,0,0,0,0,0
1569342924984.38,12.29,0,0,0,0,0
1569342925000,4.95,0,0,0,0,0
1569342925015.63,-0.09,0,0,0,0,0
1569342925031.25,-2.89,0,0,0,0,0
1569342925046.88,-4.46,0,0,0,0,0
1569342925062.5,-6.17,0,0,0,0,0
1569342925078.13,-9.09,0,0,0,0,0
1569342925093.75,-13.56,0,0,0,0,0
1569342925109.38,-18.98,0,0,0,0,0
1569342925125,-24.35,0,0,0,0,0
1569342925140.63,-28.79,0,0,0,0,0
1569342925156.25,-32.04,0,0,0,0,0
1569342925171.88,-34.49,0,0,0,0,0
1569342925187.5,-36.94,0,0,0,0,0
1569342925203.13,-40.18,0,0,0,0,0
1569342925218.75,-44.26,0,0,0,0,0
1569342925234.38,-48.54,0,0,0,0,0
1569342925250,-51.73,0,0,0,0,0
1569342925265.63,-52.48,0,0,0,0,0
1569342925281.25,-49.85,0,0,0,0,0
1569342925296.88,-43.72,0,0,0,0,0
1569342925312.5,-35.02,0,0,0,0,0
1569342925328.13,-25.27,0,0,0,0,0
1569342925343.75,-16.16,0,0,0,0,0
1569342925359.38,-8.99,0,0,0,0,0
1569342925375,-4.43,0,0,0,0,0
1569342925390.63,-2.47,0,0,0,0,0
1569342925406.25,-2.6,0,0,0,0,0
1569342925421.88,-4.09,0,0,0,0,0
1569342925437.5,-6.23,0,0,0,0,0
1569342925453.13,-8.39,0,0,0,0,0
1569342925468.75,-10.15,0,0,0,0,0
1569342925484.38,-11.25,0,0,0,0,0
1569342925500,-11.57,0,0,0,0,0
1569342925515.63,-11.29,0,0,0,0,0
1569342925531.25,-10.71,0,0,0,0,0
1569342925546.88,-10.19,0,0,0,0,0
1569342925562.5,-10.03,0,0,0,0,0
1569342925578.13,-10.32,0,0,0,0,0
1569342925593.75,-11.02,0,0,0,0,0
1569342925609.38,-11.95,0,0,0,0,0
1569342925625,-12.86,0,0,0,0,0
1569342925640.63,-13.47,0,0,0,0,0
1569342925656.25,-13.7,0,0,0,0,0
1569342925671.88,-13.67,0,0,0,0,0
1569342925687.5,-13.73,0,0,0,0,0
1569342925703.13,-14.4,0,0,0,0,0
1569342925718.75,-15.94,0,0,0,0,0
1569342925734.38,-18.23,0,0,0,0,0
1569342925750,-20.45,0,0,0,0,0
1569342925765.63,-21.48,0,0,0,0,0
1569342925781.25,-20.24,0,0,0,0,0
1569342925796.88,-16.28,0,0,0,0,0
1569342925812.5,-9.97,0,0,0,0,0
1569342925828.13,-2.4,0,0,0,0,0
1569342925843.75,5.03,0,0,0,0,0
1569342925859.38,11.2,0,0,0,0,0
1569342925875,15.58,0,0,0,0,0
1569342925890.63,18.1,0,0,0,0,0
1569342925906.25,19.09,0,0,0,0,0
1569342925921.88,18.9,0,0,0,0,0
1569342925937.5,17.84,0,0,0,0,0
1569342925953.13,16.21,0,0,0,0,0
1569342925968.75,14.31,0,0,0,0,0
1569342925984.38,12.36,0,0,0,0,0
1569342926000,10.62,0,0,0,0,0
1569342926015.63,9.25,0,0,0,0,0
1569342926031.25,8.22,0,0,0,0,0
1569342926046.88,7.44,0,0,0,0,0
1569342926062.5,6.8,0,0,0,0,0
1569342926078.13,6.24,0,0,0,0,0
1569342926093.75,5.75,0,0,0,0,0
1569342926109.38,5.29,0,0,0,0,0
1569342926125,4.83,0,0,0,0,0
1569342926140.63,4.11,0,0,0,0,0
1569342926156.25,2.89,0,0,0,0,0
1569342926171.88,0.85,0,0,0,0,0
1569342926187.5,-2.27,0,0,0,0,0
1569342926203.13,-6.59,0,0,0,0,0
1569342926218.75,-11.87,0,0,0,0,0
1569342926234.38,-17.55,0,0,0,0,0
1569342926250,-22.65,0,0,0,0,0
1569342926265.63,-26.06,0,0,0,0,0
1569342926281.25,-26.81,0,0,0,0,0
1569342926296.88,-24.46,0,0,0,0,0
1569342926312.5,-19.3,0,0,0,0,0
1569342926328.13,-12.28,0,0,0,0,0
1569342926343.75,-4.72,0,0,0,0,0
1569342926359.38,2.06,0,0,0,0,0
1569342926375,7.1,0,0,0,0,0
1569342926390.63,10.01,0,0,0,0,0
1569342926406.25,10.98,0,0,0,0,0
1569342926421.88,10.49,0,0,0,0,0
1569342926437.5,9.28,0,0,0,0,0
1569342926453.13,8,0,0,0,0,0
1569342926468.75,7.13,0,0,0,0,0
1569342926484.38,6.77,0,0,0,0,0
1569342926500,6.76,0,0,0,0,0
1569342926515.63,6.73,0,0,0,0,0
1569342926531.25,6.43,0,0,0,0,0
1569342926546.88,5.9,0,0,0,0,0
1569342926562.5,5.38,0,0,0,0,0
1569342926578.13,5.25,0,0,0,0,0
1569342926593.75,5.67,0,0,0,0,0
1569342926609.38,6.45,0,0,0,0,0
1569342926625,7.02,0,0,0,0,0
1569342926640.63,6.72,0,0,0,0,0
1569342926656.25,5.08,0,0,0,0,0
1569342926671.88,2,0,0,0,0,0
1569342926687.5,-2.23,0,0,0,0,0
1569342926703.13,-7.16,0,0,0,0,0
1569342926718.75,-12.27,0,0,0,0,0
1569342926734.38,-17.01,0,0,0,0,0
1569342926750,-20.86,0,0,0,0,0
1569342926765.63,-23.11,0,0,0,0,0
1569342926781.25,-22.97,0,0,0,0,0
1569342926796.88,-19.91,0,0,0,0,0
1569342926812.5,-13.89,0,0,0,0,0
1569342926828.13,-5.61,0,0,0,0,0
1569342926843.75,3.65,0,0,0,0,0
1569342926859.38,12.44,0,0,0,0,0
1569342926875,19.62,0,0,0,0,0
1569342926890.63,24.66,0,0,0,0,0
1569342926906.25,27.76,0,0,0,0,0
1569342926921.88,29.37,0,0,0,0,0
1569342926937.5,29.84,0,0,0,0,0
1569342926953.13,29.24,0,0,0,0,0
1569342926968.75,27.43,0,0,0,0,0
1569342926984.38,24.38,0,0,0,0,0
1569342927000,20.5,0,0,0,0,0
1569342927015.63,16.62,0,0,0,0,0
1569342927031.25,13.77,0,0,0,0,0
1569342927046.88,12.65,0,0,0,0,0
1569342927062.5,13.28,0,0,0,0,0
1569342927078.13,14.98,0,0,0,0,0
1569342927093.75,16.69,0,0,0,0,0
1569342927109.38,17.42,0,0,0,0,0
1569342927125,16.68,0,0,0,0,0
1569342927140.63,14.51,0,0,0,0,0
1569342927156.25,11.23,0,0,0,0,0
1569342927171.88,7.05,0,0,0,0,0
1569342927187.5,1.92,0,0,0,0,0
1569342927203.13,-4.43,0,0,0,0,0
1569342927218.75,-12.1,0,0,0,0,0
1569342927234.38,-20.53,0,0,0,0,0
1569342927250,-28.41,0,0,0,0,0
1569342927265.63,-33.93,0,0,0,0,0
1569342927281.25,-35.3,0,0,0,0,0
1569342927296.88,-31.48,0,0,0,0,0
1569342927312.5,-22.7,0,0,0,0,0
1569342927328.13,-10.45,0,0,0,0,0
1569342927343.75,2.92,0,0,0,0,0
1569342927359.38,14.84,0,0,0,0,0
1569342927375,23.42,0,0,0,0,0
1569342927390.63,27.62,0,0,0,0,0
1569342927406.25,27.46,0,0,0,0,0
1569342927421.88,23.75,0,0,0,0,0
1569342927437.5,17.76,0,0,0,0,0
1569342927453.13,10.93,0,0,0,0,0
1569342927468.75,4.61,0,0,0,0,0
1569342927484.38,-0.03,0,0,0,0,0
1569342927500,-2.25,0,0,0,0,0
1569342927515.63,-1.83,0,0,0,0,0
1569342927531.25,0.75,0,0,0,0,0
1569342927546.88,4.4,0,0,0,0,0
1569342927562.5,7.64,0,0,0,0,0
1569342927578.13,9.07,0,0,0,0,0
1569342927593.75,7.79,0,0,0,0,0
1569342927609.38,3.73,0,0,0,0,0
1569342927625,-2.43,0,0,0,0,0
1569342927640.63,-9.55,0,0,0,0,0
1569342927656.25,-16.53,0,0,0,0,0
1569342927671.88,-22.71,0,0,0,0,0
1569342927687.5,-27.96,0,0,0,0,0
1569342927703.13,-32.63,0,0,0,0,0
1569342927718.75,-37.13,0,0,0,0,0
1569342927734.38,-41.63,0,0,0,0,0
1569342927750,-45.84,0,0,0,0,0
1569342927765.63,-49.05,0,0,0,0,0
1569342927781.25,-50.39,0,0,0,0,0
1569342927796.88,-49.1,0,0,0,0,0
1569342927812.5,-44.82,0,0,0,0,0
1569342927828.13,-37.71,0,0,0,0,0
1569342927843.75,-28.33,0,0,0,0,0
1569342927859.38,-17.61,0,0,0,0,0
1569342927875,-6.6,0,0,0,0,0
1569342927890.63,3.73,0,0,0,0,0
1569342927906.25,12.68,0,0,0,0,0
1569342927921.88,19.73,0,0,0,0,0
1569342927937.5,24.62,0,0,0,0,0
1569342927953.13,27.39,0,0,0,0,0
1569342927968.75,28.29,0,0,0,0,0
1569342927984.38,27.87,0,0,0,0,0
1569342928000,26.74,0,0,0,0,0
1569342928015.63,25.51,0,0,0,0,0
1569342928031.25,24.51,0,0,0,0,0
1569342928046.88,23.83,0,0,0,0,0
1569342928062.5,23.28,0,0,0,0,0
1569342928078.13,22.63,0,0,0,0,0
1569342928093.75,21.74,0,0,0,0,0
1569342928109.38,20.57,0,0,0,0,0
1569342928125,19.19,0,0,0,0,0
1569342928140.63,17.63,0,0,0,0,0
1569342928156.25,15.81,0,0,0,0,0
1569342928171.88,13.53,0,0,0,0,0
1569342928187.5,10.54,0,0,0,0,0
1569342928203.13,6.55,0,0,0,0,0
1569342928218.75,1.47,0,0,0,0,0
1569342928234.38,-4.57,0,0,0,0,0
1569342928250,-11.03,0,0,0,0,0
1569342928265.63,-16.98,0,0,0,0,0
1569342928281.25,-21.21,0,0,0,0,0
1569342928296.88,-22.62,0,0,0,0,0
1569342928312.5,-20.5,0,0,0,0,0
1569342928328.13,-14.9,0,0,0,0,0
1569342928343.75,-6.68,0,0,0,0,0
1569342928359.38,2.81,0,0,0,0,0
1569342928375,11.99,0,0,0,0,0
1569342928390.63,19.58,0,0,0,0,0
1569342928406.25,24.8,0,0,0,0,0
1569342928421.88,27.5,0,0,0,0,0
1569342928437.5,27.96,0,0,0,0,0
1569342928453.13,26.72,0,0,0,0,0
1569342928468.75,24.41,0,0,0,0,0
1569342928484.38,21.67,0,0,0,0,0
1569342928500,19.05,0,0,0,0,0
1569342928515.63,16.91,0,0,0,0,0
1569342928531.25,15.4,0,0,0,0,0
1569342928546.88,14.4,0,0,0,0,0
1569342928562.5,13.66,0,0,0,0,0
1569342928578.13,12.87,0,0,0,0,0
1569342928593.75,11.85,0,0,0,0,0
1569342928609.38,10.56,0,0,0,0,0
1569342928625,9.06,0,0,0,0,0
1569342928640.63,7.45,0,0,0,0,0
1569342928656.25,5.77,0,0,0,0,0
1569342928671.88,3.97,0,0,0,0,0
1569342928687.5,1.95,0,0,0,0,0
1569342928703.13,-0.42,0,0,0,0,0
1569342928718.75,-3.34,0,0,0,0,0
1569342928734.38,-6.95,0,0,0,0,0
1569342928750,-11.26,0,0,0,0,0
1569342928765.63,-16.05,0,0,0,0,0
1569342928781.25,-20.55,0,0,0,0,0
1569342928796.88,-23.71,0,0,0,0,0
1569342928812.5,-24.3,0,0,0,0,0
1569342928828.13,-21.44,0,0,0,0,0
1569342928843.75,-14.98,0,0,0,0,0
1569342928859.38,-5.67,0,0,0,0,0
1569342928875,4.94,0,0,0,0,0
1569342928890.63,15.11,0,0,0,0,0
1569342928906.25,23.23,0,0,0,0,0
1569342928921.88,28.39,0,0,0,0,0
1569342928937.5,30.44,0,0,0,0,0
1569342928953.13,29.83,0,0,0,0,0
1569342928968.75,27.3,0,0,0,0,0
1569342928984.38,23.65,0,0,0,0,0
1569342929000,19.57,0,0,0,0,0
1569342929015.63,15.56,0,0,0,0,0
1569342929031.25,12.07,0,0,0,0,0
1569342929046.88,9.38,0,0,0,0,0
1569342929062.5,7.63,0,0,0,0,0
1569342929078.13,6.7,0,0,0,0,0
1569342929093.75,6.32,0,0,0,0,0
1569342929109.38,6.13,0,0,0,0,0
1569342929125,5.83,0,0,0,0,0
1569342929140.63,5.29,0,0,0,0,0
1569342929156.25,4.53,0,0,0,0,0
1569342929171.88,3.6,0,0,0,0,0
1569342929187.5,2.49,0,0,0,0,0
1569342929203.13,1.07,0,0,0,0,0
1569342929218.75,-0.98,0,0,0,0,0
1569342929234.38,-3.96,0,0,0,0,0
1569342929250,-7.94,0,0,0,0,0
1569342929265.63,-12.62,0,0,0,0,0
1569342929281.25,-17.26,0,0,0,0,0
1569342929296.88,-20.82,0,0,0,0,0
1569342929312.5,-22.21,0,0,0,0,0
1569342929328.13,-20.73,0,0,0,0,0
1569342929343.75,-16.36,0,0,0,0,0
1569342929359.38,-9.79,0,0,0,0,0
1569342929375,-2.18,0,0,0,0,0
1569342929390.63,5.19,0,0,0,0,0
1569342929406.25,11.32,0,0,0,0,0
1569342929421.88,15.74,0,0,0,0,0
1569342929437.5,18.37,0,0,0,0,0
1569342929453.13,19.42,0,0,0,0,0
1569342929468.75,19.09,0,0,0,0,0
1569342929484.38,17.53,0,0,0,0,0
1569342929500,14.95,0,0,0,0,0
1569342929515.63,11.71,0,0,0,0,0
1569342929531.25,8.36,0,0,0,0,0
1569342929546.88,5.42,0,0,0,0,0
1569342929562.5,3.29,0,0,0,0,0
1569342929578.13,1.87,0,0,0,0,0
1569342929593.75,0.85,0,0,0,0,0
1569342929609.38,-0.27,0,0,0,0,0
1569342929625,-1.88,0,0,0,0,0
1569342929640.63,-4.03,0,0,0,0,0
1569342929656.25,-6.53,0,0,0,0,0
1569342929671.88,-9.08,0,0,0,0,0
1569342929687.5,-11.55,0,0,0,0,0
1569342929703.13,-14.1,0,0,0,0,0
1569342929718.75,-17,0,0,0,0,0
1569342929734.38,-20.46,0,0,0,0,0
1569342929750,-24.23,0,0,0,0,0
1569342929765.63,-27.52,0,0,0,0,0
1569342929781.25,-29.21,0,0,0,0,0
1569342929796.88,-28.18,0,0,0,0,0
1569342929812.5,-23.78,0,0,0,0,0
1569342929828.13,-16.18,0,0,0,0,0
1569342929843.75,-6.34,0,0,0,0,0
1569342929859.38,4.24,0,0,0,0,0
1569342929875,13.98,0,0,0,0,0
1569342929890.63,21.64,0,0,0,0,0
1569342929906.25,26.62,0,0,0,0,0
1569342929921.88,28.88,0,0,0,0,0
1569342929937.5,28.86,0,0,0,0,0
1569342929953.13,27.23,0,0,0,0,0
1569342929968.75,24.61,0,0,0,0,0
1569342929984.38,21.54,0,0,0,0,0
1569342930000,18.3,0,0,0,0,0
1569342930015.63,15.1,0,0,0,0,0
1569342930031.25,12.14,0,0,0,0,0
1569342930046.88,9.6,0,0,0,0,0
1569342930062.5,7.79,0,0,0,0,0
1569342930078.13,6.84,0,0,0,0,0
1569342930093.75,6.79,0,0,0,0,0
1569342930109.38,7.35,0,0,0,0,0
1569342930125,8.06,0,0,0,0,0
1569342930140.63,8.42,0,0,0,0,0
1569342930156.25,7.99,0,0,0,0,0
1569342930171.88,6.54,0,0,0,0,0
1569342930187.5,4.03,0,0,0,0,0
1569342930203.13,0.59,0,0,0,0,0
1569342930218.75,-3.49,0,0,0,0,0
1569342930234.38,-7.69,0,0,0,0,0
1569342930250,-11.21,0,0,0,0,0
1569342930265.63,-13.04,0,0,0,0,0
1569342930281.25,-12.23,0,0,0,0,0
1569342930296.88,-8.29,0,0,0,0,0
1569342930312.5,-1.55,0,0,0,0,0
1569342930328.13,6.85,0,0,0,0,0
1569342930343.75,15.14,0,0,0,0,0
1569342930359.38,21.59,0,0,0,0,0
1569342930375,25.03,0,0,0,0,0
1569342930390.63,25.2,0,0,0,0,0
1569342930406.25,22.67,0,0,0,0,0
1569342930421.88,18.45,0,0,0,0,0
1569342930437.5,13.48,0,0,0,0,0
1569342930453.13,8.41,0,0,0,0,0
1569342930468.75,3.59,0,0,0,0,0
1569342930484.38,-0.78,0,0,0,0,0
1569342930500,-4.54,0,0,0,0,0
1569342930515.63,-7.42,0,0,0,0,0
1569342930531.25,-9.2,0,0,0,0,0
1569342930546.88,-9.86,0,0,0,0,0
1569342930562.5,-9.64,0,0,0,0,0
1569342930578.13,-8.97,0,0,0,0,0
1569342930593.75,-8.34,0,0,0,0,0
1569342930609.38,-8.11,0,0,0,0,0
1569342930625,-8.37,0,0,0,0,0
1569342930640.63,-9.08,0,0,0,0,0
1569342930656.25,-10.07,0,0,0,0,0
1569342930671.88,-11.27,0,0,0,0,0
1569342930687.5,-12.8,0,0,0,0,0
1569342930703.13,-14.72,0,0,0,0,0
1569342930718.75,-16.97,0,0,0,0,0
1569342930734.38,-19.12,0,0,0,0,0
1569342930750,-20.33,0,0,0,0,0
1569342930765.63,-19.67,0,0,0,0,0
1569342930781.25,-16.54,0,0,0,0,0
1569342930796.88,-10.98,0,0,0,0,0
1569342930812.5,-3.82,0,0,0,0,0
1569342930828.13,3.63,0,0,0,0,0
1569342930843.75,10.06,0,0,0,0,0
1569342930859.38,14.64,0,0,0,0,0
1569342930875,17.19,0,0,0,0,0
1569342930890.63,18.15,0,0,0,0,0
1569342930906.25,18.02,0,0,0,0,0
1569342930921.88,17.13,0,0,0,0,0
1569342930937.5,15.55,0,0,0,0,0
1569342930953.13,13.16,0,0,0,0,0
1569342930968.75,10.02,0,0,0,0,0
1569342930984.38,6.54,0,0,0,0,0
1569342931000,3.33,0,0,0,0,0
1569342931015.63,0.91,0,0,0,0,0
1569342931031.25,-0.47,0,0,0,0,0
1569342931046.88,-0.98,0,0,0,0,0
1569342931062.5,-1.17,0,0,0,0,0
1569342931078.13,-1.5,0,0,0,0,0
1569342931093.75,-2.35,0,0,0,0,0
1569342931109.38,-3.82,0,0,0,0,0
1569342931125,-5.8,0,0,0,0,0
1569342931140.63,-8.2,0,0,0,0,0
1569342931156.25,-10.95,0,0,0,0,0
1569342931171.88,-13.9,0,0,0,0,0
1569342931187.5,-16.74,0,0,0,0,0
1569342931203.13,-18.9,0,0,0,0,0
1569342931218.75,-19.67,0,0,0,0,0
1569342931234.38,-18.41,0,0,0,0,0
1569342931250,-14.96,0,0,0,0,0
1569342931265.63,-9.7,0,0,0,0,0
1569342931281.25,-3.58,0,0,0,0,0
1569342931296.88,2.19,0,0,0,0,0
1569342931312.5,6.61,0,0,0,0,0
1569342931328.13,9.1,0,0,0,0,0
1569342931343.75,9.7,0,0,0,0,0
1569342931359.38,8.83,0,0,0,0,0
1569342931375,7.05,0,0,0,0,0
1569342931390.63,4.79,0,0,0,0,0
1569342931406.25,2.29,0,0,0,0,0
1569342931421.88,-0.35,0,0,0,0,0
1569342931437.5,-3.02,0,0,0,0,0
1569342931453.13,-5.38,0,0,0,0,0
1569342931468.75,-6.96,0,0,0,0,0
1569342931484.38,-7.32,0,0,0,0,0
1569342931500,-6.2,0,0,0,0,0
1569342931515.63,-3.79,0,0,0,0,0
1569342931531.25,-0.61,0,0,0,0,0
1569342931546.88,2.68,0,0,0,0,0
1569342931562.5,5.42,0,0,0,0,0
1569342931578.13,7.11,0,0,0,0,0
1569342931593.75,7.48,0,0,0,0,0
1569342931609.38,6.39,0,0,0,0,0
1569342931625,3.92,0,0,0,0,0
1569342931640.63,0.46,0,0,0,0,0
1569342931656.25,-3.38,0,0,0,0,0
1569342931671.88,-6.76,0,0,0,0,0
1569342931687.5,-8.66,0,0,0,0,0
1569342931703.13,-8.4,0,0,0,0,0
1569342931718.75,-5.73,0,0,0,0,0
1569342931734.38,-1.1,0,0,0,0,0
1569342931750,4.53,0,0,0,0,0
1569342931765.63,9.96,0,0,0,0,0
1569342931781.25,14.13,0,0,0,0,0
1569342931796.88,16.37,0,0,0,0,0
1569342931812.5,16.5,0,0,0,0,0
1569342931828.13,14.74,0,0,0,0,0
1569342931843.75,11.56,0,0,0,0,0
1569342931859.38,7.54,0,0,0,0,0
1569342931875,3.31,0,0,0,0,0
1569342931890.63,-0.57,0,0,0,0,0
1569342931906.25,-3.64,0,0,0,0,0
1569342931921.88,-5.51,0,0,0,0,0
1569342931937.5,-6.11,0,0,0,0,0
1569342931953.13,-5.63,0,0,0,0,0
1569342931968.75,-4.46,0,0,0,0,0
1569342931984.38,-3.15,0,0,0,0,0
1569342932000,-2.27,0,0,0,0,0
1569342932015.63,-2.23,0,0,0,0,0
1569342932031.25,-3.3,0,0,0,0,0
1569342932046.88,-5.59,0,0,0,0,0
1569342932062.5,-9.01,0,0,0,0,0
1569342932078.13,-13.21,0,0,0,0,0
1569342932093.75,-17.52,0,0,0,0,0
1569342932109.38,-21.06,0,0,0,0,0
1569342932125,-23.05,0,0,0,0,0
1569342932140.63,-22.86,0,0,0,0,0
1569342932156.25,-20.42,0,0,0,0,0
1569342932171.88,-16.2,0,0,0,0,0
1569342932187.5,-11.02,0,0,0,0,0
1569342932203.13,-5.79,0,0,0,0,0
1569342932218.75,-1.3,0,0,0,0,0
1569342932234.38,1.94,0,0,0,0,0
1569342932250,3.72,0,0,0,0,0
1569342932265.63,3.98,0,0,0,0,0
1569342932281.25,2.81,0,0,0,0,0
1569342932296.88,0.38,0,0,0,0,0
1569342932312.5,-3.05,0,0,0,0,0
1569342932328.13,-7.21,0,0,0,0,0
1569342932343.75,-11.73,0,0,0,0,0
1569342932359.38,-16.28,0,0,0,0,0
1569342932375,-20.57,0,0,0,0,0
1569342932390.63,-24.39,0,0,0,0,0
1569342932406.25,-27.71,0,0,0,0,0
1569342932421.88,-30.66,0,0,0,0,0
1569342932437.5,-33.5,0,0,0,0,0
1569342932453.13,-36.67,0,0,0,0,0
1569342932468.75,-40.6,0,0,0,0,0
1569342932484.38,-45.59,0,0,0,0,0
1569342932500,-51.8,0,0,0,0,0
1569342932515.63,-59.11,0,0,0,0,0
1569342932531.25,-67.09,0,0,0,0,0
1569342932546.88,-75.01,0,0,0,0,0
1569342932562.5,-81.99,0,0,0,0,0
1569342932578.13,-87.2,0,0,0,0,0
1569342932593.75,-90.23,0,0,0,0,0
1569342932609.38,-91.06,0,0,0,0,0
1569342932625,-90.35,0,0,0,0,0
1569342932640.63,-89.17,0,0,0,0,0
1569342932656.25,-88.66,0,0,0,0,0
1569342932671.88,-89.81,0,0,0,0,0
1569342932687.5,-93.18,0,0,0,0,0
1569342932703.13,-98.94,0,0,0,0,0
1569342932718.75,-106.96,0,0,0,0,0
1569342932734.38,-117.02,0,0,0,0,0
1569342932750,-128.88,0,0,0,0,0
1569342932765.63,-142.25,0,0,0,0,0
1569342932781.25,-156.55,0,0,0,0,0
1569342932796.88,-170.86,0,0,0,0,0
1569342932812.5,-183.89,0,0,0,0,0
1569342932828.13,-194.23,0,0,0,0,0
1569342932843.75,-200.61,0,0,0,0,0
1569342932859.38,-202.11,0,0,0,0,0
1569342932875,-198.24,0,0,0,0,0
1569342932890.63,-188.79,0,0,0,0,0
1569342932906.25,-173.64,0,0,0,0,0
1569342932921.88,-152.76,0,0,0,0,0
1569342932937.5,-126.26,0,0,0,0,0
1569342932953.13,-94.57,0,0,0,0,0
1569342932968.75,-58.52,0,0,0,0,0
1569342932984.38,-19.35,0,0,0,0,0
1569342933000,21.53,0,0,0,0,0
1569342933015.63,62.6,0,0,0,0,0
1569342933031.25,102.4,0,0,0,0,0
1569342933046.88,139.45,0,0,0,0,0
1569342933062.5,172.18,0,0,0,0,0
1569342933078.13,199.17,0,0,0,0,0
1569342933093.75,219.24,0,0,0,0,0
1569342933109.38,231.8,0,0,0,0,0
1569342933125,237.02,0,0,0,0,0
1569342933140.63,235.77,0,0,0,0,0
1569342933156.25,229.35,0,0,0,0,0
1569342933171.88,219.16,0,0,0,0,0
1569342933187.5,206.58,0,0,0,0,0
1569342933203.13,192.72,0,0,0,0,0
1569342933218.75,178.49,0,0,0,0,0
1569342933234.38,164.63,0,0,0,0,0
1569342933250,151.67,0,0,0,0,0
1569342933265.63,139.93,0,0,0,0,0
1569342933281.25,129.5,0,0,0,0,0
1569342933296.88,120.27,0,0,0,0,0
1569342933312.5,112,0,0,0,0,0
1569342933328.13,104.33,0,0,0,0,0
1569342933343.75,96.92,0,0,0,0,0
1569342933359.38,89.41,0,0,0,0,0
1569342933375,81.52,0,0,0,0,0
1569342933390.63,73.07,0,0,0,0,0
1569342933406.25,64.08,0,0,0,0,0
1569342933421.88,54.83,0,0,0,0,0
1569342933437.5,45.87,0,0,0,0,0
1569342933453.13,37.88,0,0,0,0,0
1569342933468.75,31.66,0,0,0,0,0
1569342933484.38,27.76,0,0,0,0,0
1569342933500,26.34,0,0,0,0,0
1569342933515.63,27.05,0,0,0,0,0
1569342933531.25,29.08,0,0,0,0,0
1569342933546.88,31.4,0,0,0,0,0
1569342933562.5,33.06,0,0,0,0,0
1569342933578.13,33.47,0,0,0,0,0
1569342933593.75,32.44,0,0,0,0,0
1569342933609.38,30.24,0,0,0,0,0
1569342933625,27.23,0,0,0,0,0
1569342933640.63,23.79,0,0,0,0,0
1569342933656.25,20.2,0,0,0,0,0
1569342933671.88,16.58,0,0,0,0,0
1569342933687.5,13.06,0,0,0,0,0
1569342933703.13,9.86,0,0,0,0,0
1569342933718.75,7.3,0,0,0,0,0
1569342933734.38,5.66,0,0,0,0,0
1569342933750,5.07,0,0,0,0,0
1569342933765.63,5.34,0,0,0,0,0
1569342933781.25,6.03,0,0,0,0,0
1569342933796.88,6.59,0,0,0,0,0
1569342933812.5,6.54,0,0,0,0,0
1569342933828.13,5.53,0,0,0,0,0
1569342933843.75,3.5,0,0,0,0,0
1569342933859.38,0.51,0,0,0,0,0
1569342933875,-3.1,0,0,0,0,0
1569342933890.63,-6.81,0,0,0,0,0
1569342933906.25,-9.9,0,0,0,0,0
1569342933921.88,-11.6,0,0,0,0,0
1569342933937.5,-11.31,0,0,0,0,0
1569342933953.13,-8.97,0,0,0,0,0
1569342933968.75,-5.14,0,0,0,0,0
1569342933984.38,-0.86,0,0,0,0,0
1569342934000,2.67,0,0,0,0,0
1569342934015.63,4.61,0,0,0,0,0
1569342934031.25,4.66,0,0,0,0,0
1569342934046.88,3.11,0,0,0,0,0
1569342934062.5,0.57,0,0,0,0,0
1569342934078.13,-2.38,0,0,0,0,0
1569342934093.75,-5.37,0,0,0,0,0
1569342934109.38,-8.19,0,0,0,0,0
1569342934125,-10.69,0,0,0,0,0
1569342934140.63,-12.72,0,0,0,0,0
1569342934156.25,-13.97,0,0,0,0,0
1569342934171.88,-14.26,0,0,0,0,0
1569342934187.5,-13.52,0,0,0,0,0
1569342934203.13,-11.93,0,0,0,0,0
1569342934218.75,-9.89,0,0,0,0,0
1569342934234.38,-7.87,0,0,0,0,0
1569342934250,-6.35,0,0,0,0,0
1569342934265.63,-5.68,0,0,0,0,0
1569342934281.25,-6.05,0,0,0,0,0
1569342934296.88,-7.43,0,0,0,0,0
1569342934312.5,-9.59,0,0,0,0,0
1569342934328.13,-12.12,0,0,0,0,0
1569342934343.75,-14.41,0,0,0,0,0
1569342934359.38,-15.85,0,0,0,0,0
1569342934375,-15.76,0,0,0,0,0
1569342934390.63,-13.71,0,0,0,0,0
1569342934406.25,-9.55,0,0,0,0,0
1569342934421.88,-3.62,0,0,0,0,0
1569342934437.5,3.36,0,0,0,0,0
1569342934453.13,10.37,0,0,0,0,0
1569342934468.75,16.41,0,0,0,0,0
1569342934484.38,20.72,0,0,0,0,0
1569342934500,22.96,0,0,0,0,0
1569342934515.63,23.2,0,0,0,0,0
1569342934531.25,21.73,0,0,0,0,0
1569342934546.88,18.97,0,0,0,0,0
1569342934562.5,15.29,0,0,0,0,0
1569342934578.13,11.1,0,0,0,0,0
1569342934593.75,6.8,0,0,0,0,0
1569342934609.38,2.82,0,0,0,0,0
1569342934625,-0.45,0,0,0,0,0
1569342934640.63,-2.79,0,0,0,0,0
1569342934656.25,-4.19,0,0,0,0,0
1569342934671.88,-4.91,0,0,0,0,0
1569342934687.5,-5.39,0,0,0,0,0
1569342934703.13,-6.04,0,0,0,0,0
1569342934718.75,-7.21,0,0,0,0,0
1569342934734.38,-9.03,0,0,0,0,0
1569342934750,-11.47,0,0,0,0,0
1569342934765.63,-14.36,0,0,0,0,0
1569342934781.25,-17.41,0,0,0,0,0
1569342934796.88,-20.19,0,0,0,0,0
1569342934812.5,-22.2,0,0,0,0,0
1569342934828.13,-22.83,0,0,0,0,0
1569342934843.75,-21.54,0,0,0,0,0
1569342934859.38,-18.01,0,0,0,0,0
1569342934875,-12.32,0,0,0,0,0
1569342934890.63,-5.06,0,0,0,0,0
1569342934906.25,2.84,0,0,0,0,0
1569342934921.88,10.17,0,0,0,0,0
1569342934937.5,15.89,0,0,0,0,0
1569342934953.13,19.36,0,0,0,0,0
1569342934968.75,20.51,0,0,0,0,0
1569342934984.38,19.76,0,0,0,0,0
1569342935000,17.8,0,0,0,0,0
1569342935015.63,15.31,0,0,0,0,0
1569342935031.25,12.78,0,0,0,0,0
1569342935046.88,10.49,0,0,0,0,0
1569342935062.5,8.55,0,0,0,0,0
1569342935078.13,7.05,0,0,0,0,0
1569342935093.75,6.14,0,0,0,0,0
1569342935109.38,5.84,0,0,0,0,0
1569342935125,6.09,0,0,0,0,0
1569342935140.63,6.46,0,0,0,0,0
1569342935156.25,6.44,0,0,0,0,0
1569342935171.88,5.55,0,0,0,0,0
1569342935187.5,3.55,0,0,0,0,0
1569342935203.13,0.56,0,0,0,0,0
1569342935218.75,-3.09,0,0,0,0,0
1569342935234.38,-7,0,0,0,0,0
1569342935250,-10.81,0,0,0,0,0
1569342935265.63,-14.22,0,0,0,0,0
1569342935281.25,-16.82,0,0,0,0,0
1569342935296.88,-18.05,0,0,0,0,0
1569342935312.5,-17.37,0,0,0,0,0
1569342935328.13,-14.53,0,0,0,0,0
1569342935343.75,-9.78,0,0,0,0,0
1569342935359.38,-3.96,0,0,0,0,0
1569342935375,1.78,0,0,0,0,0
1569342935390.63,6.41,0,0,0,0,0
1569342935406.25,9.37,0,0,0,0,0
1569342935421.88,10.66,0,0,0,0,0
1569342935437.5,10.69,0,0,0,0,0
1569342935453.13,9.97,0,0,0,0,0
1569342935468.75,8.83,0,0,0,0,0
1569342935484.38,7.42,0,0,0,0,0
1569342935500,5.85,0,0,0,0,0
1569342935515.63,4.24,0,0,0,0,0
1569342935531.25,2.83,0,0,0,0,0
1569342935546.88,1.79,0,0,0,0,0
1569342935562.5,1.17,0,0,0,0,0
1569342935578.13,0.75,0,0,0,0,0
1569342935593.75,0.27,0,0,0,0,0
1569342935609.38,-0.5,0,0,0,0,0
1569342935625,-1.55,0,0,0,0,0
1569342935640.63,-2.79,0,0,0,0,0
1569342935656.25,-4.19,0,0,0,0,0
1569342935671.88,-5.89,0,0,0,0,0
1569342935687.5,-8.22,0,0,0,0,0
1569342935703.13,-11.37,0,0,0,0,0
1569342935718.75,-15.22,0,0,0,0,0
1569342935734.38,-19.06,0,0,0,0,0
1569342935750,-21.87,0,0,0,0,0
1569342935765.63,-22.61,0,0,0,0,0
1569342935781.25,-20.6,0,0,0,0,0
1569342935796.88,-15.86,0,0,0,0,0
1569342935812.5,-8.99,0,0,0,0,0
1569342935828.13,-1.03,0,0,0,0,0
1569342935843.75,6.92,0,0,0,0,0
1569342935859.38,13.94,0,0,0,0,0
1569342935875,19.44,0,0,0,0,0
1569342935890.63,23.07,0,0,0,0,0
1569342935906.25,24.76,0,0,0,0,0
1569342935921.88,24.6,0,0,0,0,0
1569342935937.5,22.95,0,0,0,0,0
1569342935953.13,20.4,0,0,0,0,0
1569342935968.75,17.68,0,0,0,0,0
1569342935984.38,15.56,0,0,0,0,0
1569342936000,14.59,0,0,0,0,0
1569342936015.63,14.94,0,0,0,0,0
1569342936031.25,16.36,0,0,0,0,0
1569342936046.88,18.34,0,0,0,0,0
1569342936062.5,20.25,0,0,0,0,0
1569342936078.13,21.6,0,0,0,0,0
1569342936093.75,22.1,0,0,0,0,0
1569342936109.38,21.77,0,0,0,0,0
1569342936125,20.83,0,0,0,0,0
1569342936140.63,19.57,0,0,0,0,0
1569342936156.25,18.25,0,0,0,0,0
1569342936171.88,16.95,0,0,0,0,0
1569342936187.5,15.52,0,0,0,0,0
1569342936203.13,13.73,0,0,0,0,0
1569342936218.75,11.38,0,0,0,0,0
1569342936234.38,8.53,0,0,0,0,0
1569342936250,5.56,0,0,0,0,0
1569342936265.63,3.04,0,0,0,0,0
1569342936281.25,1.44,0,0,0,0,0
1569342936296.88,0.78,0,0,0,0,0
1569342936312.5,0.31,0,0,0,0,0
1569342936328.13,-1.44,0,0,0,0,0
1569342936343.75,-6.32,0,0,0,0,0
1569342936359.38,-15.98,0,0,0,0,0
1569342936375,-31.27,0,0,0,0,0
1569342936390.63,-51.81,0,0,0,0,0
1569342936406.25,-75.91,0,0,0,0,0
1569342936421.88,-100.74,0,0,0,0,0
1569342936437.5,-122.97,0,0,0,0,0
1569342936453.13,-139.35,0,0,0,0,0
1569342936468.75,-147.46,0,0,0,0,0
1569342936484.38,-146.23,0,0,0,0,0
1569342936500,-136.06,0,0,0,0,0
1569342936515.63,-118.73,0,0,0,0,0
1569342936531.25,-96.85,0,0,0,0,0
1569342936546.88,-73.19,0,0,0,0,0
1569342936562.5,-50,0,0,0,0,0
1569342936578.13,-28.7,0,0,0,0,0
1569342936593.75,-9.93,0,0,0,0,0
1569342936609.38,6.1,0,0,0,0,0
1569342936625,19.25,0,0,0,0,0
1569342936640.63,29.17,0,0,0,0,0
1569342936656.25,35.54,0,0,0,0,0
1569342936671.88,38.34,0,0,0,0,0
1569342936687.5,38.26,0,0,0,0,0
1569342936703.13,36.59,0,0,0,0,0
1569342936718.75,34.98,0,0,0,0,0
1569342936734.38,34.82,0,0,0,0,0
1569342936750,36.66,0,0,0,0,0
1569342936765.63,40.17,0,0,0,0,0
1569342936781.25,44.23,0,0,0,0,0
1569342936796.88,47.37,0,0,0,0,0
1569342936812.5,48.35,0,0,0,0,0
1569342936828.13,46.58,0,0,0,0,0
1569342936843.75,42.31,0,0,0,0,0
1569342936859.38,36.56,0,0,0,0,0
1569342936875,30.78,0,0,0,0,0
1569342936890.63,26.22,0,0,0,0,0
1569342936906.25,23.4,0,0,0,0,0
1569342936921.88,21.97,0,0,0,0,0
1569342936937.5,21.09,0,0,0,0,0
1569342936953.13,19.97,0,0,0,0,0
1569342936968.75,18.48,0,0,0,0,0
1569342936984.38,17.22,0,0,0,0,0
1569342937000,17.18,0,0,0,0,0
1569342937015.63,19.01,0,0,0,0,0
1569342937031.25,22.5,0,0,0,0,0
1569342937046.88,26.57,0,0,0,0,0
1569342937062.5,29.69,0,0,0,0,0
1569342937078.13,30.67,0,0,0,0,0
1569342937093.75,28.96,0,0,0,0,0
1569342937109.38,24.72,0,0,0,0,0
1569342937125,18.61,0,0,0,0,0
1569342937140.63,11.43,0,0,0,0,0
1569342937156.25,4.11,0,0,0,0,0
1569342937171.88,-2.43,0,0,0,0,0
1569342937187.5,-7.29,0,0,0,0,0
1569342937203.13,-9.88,0,0,0,0,0
1569342937218.75,-10.16,0,0,0,0,0
1569342937234.38,-8.61,0,0,0,0,0
1569342937250,-6.05,0,0,0,0,0
1569342937265.63,-3.3,0,0,0,0,0
1569342937281.25,-0.88,0,0,0,0,0
1569342937296.88,0.97,0,0,0,0,0
1569342937312.5,2.14,0,0,0,0,0
1569342937328.13,2.55,0,0,0,0,0
1569342937343.75,2.27,0,0,0,0,0
1569342937359.38,1.59,0,0,0,0,0
1569342937375,1.02,0,0,0,0,0
1569342937390.63,1.11,0,0,0,0,0
1569342937406.25,1.93,0,0,0,0,0
1569342937421.88,3.02,0,0,0,0,0
1569342937437.5,3.54,0,0,0,0,0
1569342937453.13,2.76,0,0,0,0,0
1569342937468.75,0.55,0,0,0,0,0
1569342937484.38,-2.44,0,0,0,0,0
1569342937500,-5.25,0,0,0,0,0
1569342937515.63,-7.23,0,0,0,0,0
1569342937531.25,-8.44,0,0,0,0,0
1569342937546.88,-9.6,0,0,0,0,0
1569342937562.5,-11.62,0,0,0,0,0
1569342937578.13,-14.81,0,0,0,0,0
1569342937593.75,-18.49,0,0,0,0,0
1569342937609.38,-21.29,0,0,0,0,0
1569342937625,-21.72,0,0,0,0,0
1569342937640.63,-19.02,0,0,0,0,0
1569342937656.25,-13.64,0,0,0,0,0
1569342937671.88,-7.2,0,0,0,0,0
1569342937687.5,-1.74,0,0,0,0,0
1569342937703.13,1.09,0,0,0,0,0
1569342937718.75,0.66,0,0,0,0,0
1569342937734.38,-2.49,0,0,0,0,0
1569342937750,-7.09,0,0,0,0,0
1569342937765.63,-11.77,0,0,0,0,0
1569342937781.25,-15.72,0,0,0,0,0
1569342937796.88,-18.87,0,0,0,0,0
1569342937812.5,-21.67,0,0,0,0,0
1569342937828.13,-24.7,0,0,0,0,0
1569342937843.75,-28.1,0,0,0,0,0
1569342937859.38,-31.48,0,0,0,0,0
1569342937875,-33.98,0,0,0,0,0
1569342937890.63,-34.79,0,0,0,0,0
1569342937906.25,-33.52,0,0,0,0,0
1569342937921.88,-30.47,0,0,0,0,0
1569342937937.5,-26.64,0,0,0,0,0
1569342937953.13,-23.28,0,0,0,0,0
1569342937968.75,-21.48,0,0,0,0,0
1569342937984.38,-21.62,0,0,0,0,0
1569342938000,-23.17,0,0,0,0,0
1569342938015.63,-24.88,0,0,0,0,0
1569342938031.25,-25.25,0,0,0,0,0
1569342938046.88,-23.13,0,0,0,0,0
1569342938062.5,-18.17,0,0,0,0,0
1569342938078.13,-10.93,0,0,0,0,0
1569342938093.75,-2.5,0,0,0,0,0
1569342938109.38,5.81,0,0,0,0,0
1569342938125,13.01,0,0,0,0,0
1569342938140.63,18.55,0,0,0,0,0
1569342938156.25,22.3,0,0,0,0,0
1569342938171.88,24.33,0,0,0,0,0
1569342938187.5,24.74,0,0,0,0,0
1569342938203.13,23.66,0,0,0,0,0
1569342938218.75,21.23,0,0,0,0,0
1569342938234.38,17.81,0,0,0,0,0
1569342938250,14.01,0,0,0,0,0
1569342938265.63,10.58,0,0,0,0,0
1569342938281.25,8.25,0,0,0,0,0
1569342938296.88,7.48,0,0,0,0,0
1569342938312.5,8.25,0,0,0,0,0
1569342938328.13,10.02,0,0,0,0,0
1569342938343.75,11.99,0,0,0,0,0
1569342938359.38,13.33,0,0,0,0,0
1569342938375,13.64,0,0,0,0,0
1569342938390.63,13.01,0,0,0,0,0
1569342938406.25,11.88,0,0,0,0,0
1569342938421.88,10.69,0,0,0,0,0
1569342938437.5,9.55,0,0,0,0,0
1569342938453.13,8.22,0,0,0,0,0
1569342938468.75,6.41,0,0,0,0,0
1569342938484.38,4.1,0,0,0,0,0
1569342938500,1.82,0,0,0,0,0
1569342938515.63,0.47,0,0,0,0,0
1569342938531.25,0.88,0,0,0,0,0
1569342938546.88,3.3,0,0,0,0,0
1569342938562.5,7.22,0,0,0,0,0
1569342938578.13,11.51,0,0,0,0,0
1569342938593.75,14.97,0,0,0,0,0
1569342938609.38,16.81,0,0,0,0,0
1569342938625,16.88,0,0,0,0,0
1569342938640.63,15.68,0,0,0,0,0
1569342938656.25,13.84,0,0,0,0,0
1569342938671.88,11.92,0,0,0,0,0
1569342938687.5,10.1,0,0,0,0,0
1569342938703.13,8.31,0,0,0,0,0
1569342938718.75,6.41,0,0,0,0,0
1569342938734.38,4.31,0,0,0,0,0
1569342938750,2.19,0,0,0,0,0
1569342938765.63,0.26,0,0,0,0,0
1569342938781.25,-1.31,0,0,0,0,0
1569342938796.88,-2.54,0,0,0,0,0
1569342938812.5,-3.67,0,0,0,0,0
1569342938828.13,-5.05,0,0,0,0,0
1569342938843.75,-6.99,0,0,0,0,0
1569342938859.38,-9.6,0,0,0,0,0
1569342938875,-12.76,0,0,0,0,0
1569342938890.63,-16.16,0,0,0,0,0
1569342938906.25,-19.48,0,0,0,0,0
1569342938921.88,-22.41,0,0,0,0,0
1569342938937.5,-24.74,0,0,0,0,0
1569342938953.13,-26.28,0,0,0,0,0
1569342938968.75,-26.86,0,0,0,0,0
1569342938984.38,-26.34,0,0,0,0,0
1569342939000,-24.69,0,0,0,0,0
1569342939015.63,-22.08,0,0,0,0,0
1569342939031.25,-18.84,0,0,0,0,0
1569342939046.88,-15.51,0,0,0,0,0
1569342939062.5,-12.46,0,0,0,0,0
1569342939078.13,-9.84,0,0,0,0,0
1569342939093.75,-7.42,0,0,0,0,0
1569342939109.38,-4.77,0,0,0,0,0
1569342939125,-1.56,0,0,0,0,0
1569342939140.63,2.3,0,0,0,0,0
1569342939156.25,6.41,0,0,0,0,0
1569342939171.88,10.09,0,0,0,0,0
1569342939187.5,12.7,0,0,0,0,0
1569342939203.13,13.92,0,0,0,0,0
1569342939218.75,14.01,0,0,0,0,0
1569342939234.38,13.67,0,0,0,0,0
1569342939250,13.75,0,0,0,0,0
1569342939265.63,14.81,0,0,0,0,0
1569342939281.25,16.84,0,0,0,0,0
1569342939296.88,19.19,0,0,0,0,0
1569342939312.5,20.82,0,0,0,0,0
1569342939328.13,20.77,0,0,0,0,0
1569342939343.75,18.54,0,0,0,0,0
1569342939359.38,14.34,0,0,0,0,0
1569342939375,8.85,0,0,0,0,0
1569342939390.63,2.97,0,0,0,0,0
1569342939406.25,-2.58,0,0,0,0,0
1569342939421.88,-7.36,0,0,0,0,0
1569342939437.5,-11.09,0,0,0,0,0
1569342939453.13,-13.49,0,0,0,0,0
1569342939468.75,-14.19,0,0,0,0,0
1569342939484.38,-12.82,0,0,0,0,0
1569342939500,-9.26,0,0,0,0,0
1569342939515.63,-3.84,0,0,0,0,0
1569342939531.25,2.67,0,0,0,0,0
1569342939546.88,9.28,0,0,0,0,0
1569342939562.5,15.12,0,0,0,0,0
1569342939578.13,19.61,0,0,0,0,0
1569342939593.75,22.69,0,0,0,0,0
1569342939609.38,24.52,0,0,0,0,0
1569342939625,25.37,0,0,0,0,0
1569342939640.63,25.49,0,0,0,0,0
1569342939656.25,24.99,0,0,0,0,0
1569342939671.88,23.97,0,0,0,0,0
1569342939687.5,22.55,0,0,0,0,0
1569342939703.13,20.93,0,0,0,0,0
1569342939718.75,19.37,0,0,0,0,0
1569342939734.38,18.11,0,0,0,0,0
1569342939750,17.26,0,0,0,0,0
1569342939765.63,16.71,0,0,0,0,0
1569342939781.25,16.2,0,0,0,0,0
1569342939796.88,15.3,0,0,0,0,0
1569342939812.5,13.72,0,0,0,0,0
1569342939828.13,11.39,0,0,0,0,0
1569342939843.75,8.48,0,0,0,0,0
1569342939859.38,5.3,0,0,0,0,0
1569342939875,2.14,0,0,0,0,0
1569342939890.63,-0.79,0,0,0,0,0
1569342939906.25,-3.37,0,0,0,0,0
1569342939921.88,-5.49,0,0,0,0,0
1569342939937.5,-7,0,0,0,0,0
1569342939953.13,-7.78,0,0,0,0,0
1569342939968.75,-7.79,0,0,0,0,0
1569342939984.38,-7.14,0,0,0,0,0
1569342940000,-5.98,0,0,0,0,0
1569342940015.63,-4.35,0,0,0,0,0
1569342940031.25,-2.08,0,0,0,0,0
1569342940046.88,1.1,0,0,0,0,0
1569342940062.5,5.32,0,0,0,0,0
1569342940078.13,10.31,0,0,0,0,0
1569342940093.75,15.46,0,0,0,0,0
1569342940109.38,19.85,0,0,0,0,0
1569342940125,22.69,0,0,0,0,0
1569342940140.63,23.59,0,0,0,0,0
1569342940156.25,22.59,0,0,0,0,0
1569342940171.88,20.13,0,0,0,0,0
1569342940187.5,16.87,0,0,0,0,0
1569342940203.13,13.47,0,0,0,0,0
1569342940218.75,10.54,0,0,0,0,0
1569342940234.38,8.55,0,0,0,0,0
1569342940250,7.83,0,0,0,0,0
1569342940265.63,8.46,0,0,0,0,0
1569342940281.25,10.17,0,0,0,0,0
1569342940296.88,12.33,0,0,0,0,0
1569342940312.5,14.06,0,0,0,0,0
1569342940328.13,14.54,0,0,0,0,0
1569342940343.75,13.28,0,0,0,0,0
1569342940359.38,10.38,0,0,0,0,0
1569342940375,6.46,0,0,0,0,0
1569342940390.63,2.41,0,0,0,0,0
1569342940406.25,-1,0,0,0,0,0
1569342940421.88,-3.46,0,0,0,0,0
1569342940437.5,-5.18,0,0,0,0,0
1569342940453.13,-6.67,0,0,0,0,0
1569342940468.75,-8.53,0,0,0,0,0
1569342940484.38,-11.07,0,0,0,0,0
1569342940500,-14.24,0,0,0,0,0
1569342940515.63,-17.59,0,0,0,0,0
1569342940531.25,-20.35,0,0,0,0,0
1569342940546.88,-21.61,0,0,0,0,0
1569342940562.5,-20.6,0,0,0,0,0
1569342940578.13,-17,0,0,0,0,0
1569342940593.75,-11.16,0,0,0,0,0
1569342940609.38,-4.23,0,0,0,0,0
1569342940625,2.18,0,0,0,0,0
1569342940640.63,6.57,0,0,0,0,0
1569342940656.25,8.1,0,0,0,0,0
1569342940671.88,6.89,0,0,0,0,0
1569342940687.5,3.94,0,0,0,0,0
1569342940703.13,0.61,0,0,0,0,0
1569342940718.75,-2.02,0,0,0,0,0
1569342940734.38,-3.4,0,0,0,0,0
1569342940750,-3.57,0,0,0,0,0
1569342940765.63,-2.74,0,0,0,0,0
1569342940781.25,-1.06,0,0,0,0,0
1569342940796.88,1.61,0,0,0,0,0
1569342940812.5,5.45,0,0,0,0,0
1569342940828.13,10.39,0,0,0,0,0
1569342940843.75,15.94,0,0,0,0,0
1569342940859.38,21.14,0,0,0,0,0
1569342940875,25,0,0,0,0,0
1569342940890.63,26.76,0,0,0,0,0
1569342940906.25,26.27,0,0,0,0,0
1569342940921.88,24,0,0,0,0,0
1569342940937.5,20.65,0,0,0,0,0
1569342940953.13,16.93,0,0,0,0,0
1569342940968.75,13.22,0,0,0,0,0
1569342940984.38,9.58,0,0,0,0,0
1569342941000,5.88,0,0,0,0,0
1569342941015.63,1.93,0,0,0,0,0
1569342941031.25,-2.34,0,0,0,0,0
1569342941046.88,-6.9,0,0,0,0,0
1569342941062.5,-11.64,0,0,0,0,0
1569342941078.13,-16.5,0,0,0,0,0
1569342941093.75,-21.2,0,0,0,0,0
1569342941109.38,-25.24,0,0,0,0,0
1569342941125,-27.82,0,0,0,0,0
1569342941140.63,-28.02,0,0,0,0,0
1569342941156.25,-25.25,0,0,0,0,0
1569342941171.88,-19.55,0,0,0,0,0
1569342941187.5,-11.83,0,0,0,0,0
1569342941203.13,-3.57,0,0,0,0,0
1569342941218.75,3.65,0,0,0,0,0
1569342941234.38,8.74,0,0,0,0,0
1569342941250,11.39,0,0,0,0,0
1569342941265.63,11.95,0,0,0,0,0
1569342941281.25,11.1,0,0,0,0,0
1569342941296.88,9.36,0,0,0,0,0
1569342941312.5,6.99,0,0,0,0,0
1569342941328.13,4.07,0,0,0,0,0
1569342941343.75,0.82,0,0,0,0,0
1569342941359.38,-2.29,0,0,0,0,0
1569342941375,-4.49,0,0,0,0,0
1569342941390.63,-5.12,0,0,0,0,0
1569342941406.25,-4.02,0,0,0,0,0
1569342941421.88,-1.62,0,0,0,0,0
1569342941437.5,1.11,0,0,0,0,0
1569342941453.13,3.09,0,0,0,0,0
1569342941468.75,3.51,0,0,0,0,0
1569342941484.38,2.2,0,0,0,0,0
1569342941500,-0.45,0,0,0,0,0
1569342941515.63,-3.69,0,0,0,0,0
1569342941531.25,-6.78,0,0,0,0,0
1569342941546.88,-9.34,0,0,0,0,0
1569342941562.5,-11.34,0,0,0,0,0
1569342941578.13,-13.08,0,0,0,0,0
1569342941593.75,-14.78,0,0,0,0,0
1569342941609.38,-16.6,0,0,0,0,0
1569342941625,-18.41,0,0,0,0,0
1569342941640.63,-20.09,0,0,0,0,0
1569342941656.25,-21.57,0,0,0,0,0
1569342941671.88,-22.91,0,0,0,0,0
1569342941687.5,-24.06,0,0,0,0,0
1569342941703.13,-24.68,0,0,0,0,0
1569342941718.75,-24.18,0,0,0,0,0
1569342941734.38,-21.9,0,0,0,0,0
1569342941750,-17.56,0,0,0,0,0
1569342941765.63,-11.57,0,0,0,0,0
1569342941781.25,-5.04,0,0,0,0,0
1569342941796.88,0.62,0,0,0,0,0
1569342941812.5,4.35,0,0,0,0,0
1569342941828.13,5.76,0,0,0,0,0
1569342941843.75,5.24,0,0,0,0,0
1569342941859.38,3.58,0,0,0,0,0
1569342941875,1.52,0,0,0,0,0
1569342941890.63,-0.57,0,0,0,0,0
1569342941906.25,-2.62,0,0,0,0,0
1569342941921.88,-4.72,0,0,0,0,0
1569342941937.5,-6.74,0,0,0,0,0
1569342941953.13,-8.3,0,0,0,0,0
1569342941968.75,-8.92,0,0,0,0,0
1569342941984.38,-8.24,0,0,0,0,0
1569342942000,-6.3,0,0,0,0,0
1569342942015.63,-3.43,0,0,0,0,0
1569342942031.25,-0.29,0,0,0,0,0
1569342942046.88,2.5,0,0,0,0,0
1569342942062.5,4.44,0,0,0,0,0
1569342942078.13,5.27,0,0,0,0,0
1569342942093.75,5.05,0,0,0,0,0
1569342942109.38,3.99,0,0,0,0,0
1569342942125,2.47,0,0,0,0,0
1569342942140.63,0.75,0,0,0,0,0
1569342942156.25,-0.91,0,0,0,0,0
1569342942171.88,-2.42,0,0,0,0,0
1569342942187.5,-3.79,0,0,0,0,0
1569342942203.13,-5.12,0,0,0,0,0
1569342942218.75,-6.53,0,0,0,0,0
1569342942234.38,-8.19,0,0,0,0,0
1569342942250,-10.23,0,0,0,0,0
1569342942265.63,-12.69,0,0,0,0,0
1569342942281.25,-15.36,0,0,0,0,0
1569342942296.88,-17.82,0,0,0,0,0
1569342942312.5,-19.44,0,0,0,0,0
1569342942328.13,-19.66,0,0,0,0,0
1569342942343.75,-18.12,0,0,0,0,0
1569342942359.38,-14.8,0,0,0,0,0
1569342942375,-9.93,0,0,0,0,0
1569342942390.63,-3.99,0,0,0,0,0
1569342942406.25,2.53,0,0,0,0,0
1569342942421.88,9.04,0,0,0,0,0
1569342942437.5,14.83,0,0,0,0,0
1569342942453.13,19.04,0,0,0,0,0
1569342942468.75,20.88,0,0,0,0,0
1569342942484.38,19.86,0,0,0,0,0
1569342942500,16.15,0,0,0,0,0
1569342942515.63,10.69,0,0,0,0,0
1569342942531.25,4.86,0,0,0,0,0
1569342942546.88,0.01,0,0,0,0,0
1569342942562.5,-3.01,0,0,0,0,0
1569342942578.13,-4.11,0,0,0,0,0
1569342942593.75,-3.88,0,0,0,0,0
1569342942609.38,-3.16,0,0,0,0,0
1569342942625,-2.65,0,0,0,0,0
1569342942640.63,-2.7,0,0,0,0,0
1569342942656.25,-3.27,0,0,0,0,0
1569342942671.88,-4.1,0,0,0,0,0
1569342942687.5,-4.93,0,0,0,0,0
1569342942703.13,-5.59,0,0,0,0,0
1569342942718.75,-6,0,0,0,0,0
1569342942734.38,-6.24,0,0,0,0,0
1569342942750,-6.37,0,0,0,0,0
1569342942765.63,-6.47,0,0,0,0,0
1569342942781.25,-6.57,0,0,0,0,0
1569342942796.88,-6.73,0,0,0,0,0
1569342942812.5,-7.04,0,0,0,0,0
1569342942828.13,-7.66,0,0,0,0,0
1569342942843.75,-8.7,0,0,0,0,0
1569342942859.38,-10.12,0,0,0,0,0
1569342942875,-11.61,0,0,0,0,0
1569342942890.63,-12.46,0,0,0,0,0
1569342942906.25,-11.89,0,0,0,0,0
1569342942921.88,-9.26,0,0,0,0,0
1569342942937.5,-4.53,0,0,0,0,0
1569342942953.13,1.66,0,0,0,0,0
1569342942968.75,8.17,0,0,0,0,0
1569342942984.38,13.76,0,0,0,0,0
1569342943000,17.56,0,0,0,0,0
1569342943015.63,19.28,0,0,0,0,0
1569342943031.25,19.22,0,0,0,0,0
1569342943046.88,17.97,0,0,0,0,0
1569342943062.5,16.05,0,0,0,0,0
1569342943078.13,13.8,0,0,0,0,0
1569342943093.75,11.31,0,0,0,0,0
1569342943109.38,8.65,0,0,0,0,0
1569342943125,5.97,0,0,0,0,0
1569342943140.63,3.55,0,0,0,0,0
1569342943156.25,1.63,0,0,0,0,0
1569342943171.88,0.29,0,0,0,0,0
1569342943187.5,-0.77,0,0,0,0,0
1569342943203.13,-2.03,0,0,0,0,0
1569342943218.75,-3.94,0,0,0,0,0
1569342943234.38,-6.59,0,0,0,0,0
1569342943250,-9.55,0,0,0,0,0
1569342943265.63,-12.15,0,0,0,0,0
1569342943281.25,-13.68,0,0,0,0,0
1569342943296.88,-13.86,0,0,0,0,0
1569342943312.5,-12.85,0,0,0,0,0
1569342943328.13,-11.25,0,0,0,0,0
1569342943343.75,-9.68,0,0,0,0,0
1569342943359.38,-8.6,0,0,0,0,0
1569342943375,-8.16,0,0,0,0,0
1569342943390.63,-8.29,0,0,0,0,0
1569342943406.25,-8.88,0,0,0,0,0
1569342943421.88,-9.72,0,0,0,0,0
1569342943437.5,-10.62,0,0,0,0,0
1569342943453.13,-11.18,0,0,0,0,0
1569342943468.75,-10.85,0,0,0,0,0
1569342943484.38,-9.18,0,0,0,0,0
1569342943500,-5.97,0,0,0,0,0
1569342943515.63,-1.52,0,0,0,0,0
1569342943531.25,3.44,0,0,0,0,0
1569342943546.88,7.94,0,0,0,0,0
1569342943562.5,11.17,0,0,0,0,0
1569342943578.13,12.7,0,0,0,0,0
1569342943593.75,12.56,0,0,0,0,0
1569342943609.38,11.14,0,0,0,0,0
1569342943625,8.88,0,0,0,0,0
1569342943640.63,6.2,0,0,0,0,0
1569342943656.25,3.29,0,0,0,0,0
1569342943671.88,0.39,0,0,0,0,0
1569342943687.5,-2.28,0,0,0,0,0
1569342943703.13,-4.35,0,0,0,0,0
1569342943718.75,-5.48,0,0,0,0,0
1569342943734.38,-5.47,0,0,0,0,0
1569342943750,-4.39,0,0,0,0,0
1569342943765.63,-2.6,0,0,0,0,0
1569342943781.25,-0.68,0,0,0,0,0
1569342943796.88,0.76,0,0,0,0,0
1569342943812.5,1.3,0,0,0,0,0
1569342943828.13,0.84,0,0,0,0,0
1569342943843.75,-0.42,0,0,0,0,0
1569342943859.38,-2.06,0,0,0,0,0
1569342943875,-3.62,0,0,0,0,0
1569342943890.63,-4.81,0,0,0,0,0
1569342943906.25,-5.63,0,0,0,0,0
1569342943921.88,-6.29,0,0,0,0,0
1569342943937.5,-7.05,0,0,0,0,0
1569342943953.13,-8.18,0,0,0,0,0
1569342943968.75,-9.66,0,0,0,0,0
1569342943984.38,-11.33,0,0,0,0,0
1569342944000,-12.85,0,0,0,0,0
1569342944015.63,-13.86,0,0,0,0,0
1569342944031.25,-13.94,0,0,0,0,0
1569342944046.88,-12.8,0,0,0,0,0
1569342944062.5,-10.36,0,0,0,0,0
1569342944078.13,-6.82,0,0,0,0,0
1569342944093.75,-2.66,0,0,0,0,0
1569342944109.38,1.56,0,0,0,0,0
1569342944125,5.33,0,0,0,0,0
1569342944140.63,8.34,0,0,0,0,0
1569342944156.25,10.51,0,0,0,0,0
1569342944171.88,11.84,0,0,0,0,0
1569342944187.5,12.35,0,0,0,0,0
1569342944203.13,12.03,0,0,0,0,0
1569342944218.75,10.91,0,0,0,0,0
1569342944234.38,9.1,0,0,0,0,0
1569342944250,6.88,0,0,0,0,0
1569342944265.63,4.53,0,0,0,0,0
1569342944281.25,2.33,0,0,0,0,0
1569342944296.88,0.35,0,0,0,0,0
1569342944312.5,-1.4,0,0,0,0,0
1569342944328.13,-2.96,0,0,0,0,0
1569342944343.75,-4.24,0,0,0,0,0
1569342944359.38,-5.2,0,0,0,0,0
1569342944375,-5.84,0,0,0,0,0
1569342944390.63,-6.26,0,0,0,0,0
1569342944406.25,-6.66,0,0,0,0,0
1569342944421.88,-7.17,0,0,0,0,0
1569342944437.5,-7.76,0,0,0,0,0
1569342944453.13,-8.34,0,0,0,0,0
1569342944468.75,-8.77,0,0,0,0,0
1569342944484.38,-9.01,0,0,0,0,0
1569342944500,-9.25,0,0,0,0,0
1569342944515.63,-9.76,0,0,0,0,0
1569342944531.25,-10.71,0,0,0,0,0
1569342944546.88,-12.04,0,0,0,0,0
1569342944562.5,-13.29,0,0,0,0,0
1569342944578.13,-13.72,0,0,0,0,0
1569342944593.75,-12.64,0,0,0,0,0
1569342944609.38,-9.72,0,0,0,0,0
1569342944625,-5.23,0,0,0,0,0
1569342944640.63,-0.02,0,0,0,0,0
1569342944656.25,4.84,0,0,0,0,0
1569342944671.88,8.44,0,0,0,0,0
1569342944687.5,10.36,0,0,0,0,0
1569342944703.13,10.73,0,0,0,0,0
1569342944718.75,10.03,0,0,0,0,0
1569342944734.38,8.78,0,0,0,0,0
1569342944750,7.28,0,0,0,0,0
1569342944765.63,5.67,0,0,0,0,0
1569342944781.25,3.92,0,0,0,0,0
1569342944796.88,2.14,0,0,0,0,0
1569342944812.5,0.58,0,0,0,0,0
1569342944828.13,-0.46,0,0,0,0,0
1569342944843.75,-0.74,0,0,0,0,0
1569342944859.38,-0.32,0,0,0,0,0
1569342944875,0.45,0,0,0,0,0
1569342944890.63,1.04,0,0,0,0,0
1569342944906.25,0.96,0,0,0,0,0
1569342944921.88,-0.03,0,0,0,0,0
1569342944937.5,-1.86,0,0,0,0,0
1569342944953.13,-4.14,0,0,0,0,0
1569342944968.75,-6.43,0,0,0,0,0
1569342944984.38,-8.33,0,0,0,0,0
1569342945000,-9.65,0,0,0,0,0
1569342945015.63,-10.46,0,0,0,0,0
1569342945031.25,-10.96,0,0,0,0,0
1569342945046.88,-11.43,0,0,0,0,0
1569342945062.5,-12.08,0,0,0,0,0
1569342945078.13,-12.94,0,0,0,0,0
1569342945093.75,-13.77,0,0,0,0,0
1569342945109.38,-14.15,0,0,0,0,0
1569342945125,-13.53,0,0,0,0,0
1569342945140.63,-11.51,0,0,0,0,0
1569342945156.25,-8.09,0,0,0,0,0
1569342945171.88,-3.7,0,0,0,0,0
1569342945187.5,0.89,0,0,0,0,0
1569342945203.13,4.75,0,0,0,0,0
1569342945218.75,7.18,0,0,0,0,0
1569342945234.38,7.9,0,0,0,0,0
1569342945250,7.07,0,0,0,0,0
1569342945265.63,5.27,0,0,0,0,0
1569342945281.25,3.13,0,0,0,0,0
1569342945296.88,1.23,0,0,0,0,0
1569342945312.5,-0.13,0,0,0,0,0
1569342945328.13,-0.87,0,0,0,0,0
1569342945343.75,-1.12,0,0,0,0,0
1569342945359.38,-1.07,0,0,0,0,0
1569342945375,-0.91,0,0,0,0,0
1569342945390.63,-0.8,0,0,0,0,0
1569342945406.25,-0.89,0,0,0,0,0
1569342945421.88,-1.32,0,0,0,0,0
1569342945437.5,-2.19,0,0,0,0,0
1569342945453.13,-3.49,0,0,0,0,0
1569342945468.75,-5.01,0,0,0,0,0
1569342945484.38,-6.42,0,0,0,0,0
1569342945500,-7.46,0,0,0,0,0
1569342945515.63,-7.93,0,0,0,0,0
1569342945531.25,-7.91,0,0,0,0,0
1569342945546.88,-7.69,0,0,0,0,0
1569342945562.5,-7.57,0,0,0,0,0
1569342945578.13,-7.69,0,0,0,0,0
1569342945593.75,-7.84,0,0,0,0,0
1569342945609.38,-7.5,0,0,0,0,0
1569342945625,-6.09,0,0,0,0,0
1569342945640.63,-3.2,0,0,0,0,0
1569342945656.25,1.1,0,0,0,0,0
1569342945671.88,6.27,0,0,0,0,0
1569342945687.5,11.43,0,0,0,0,0
1569342945703.13,15.71,0,0,0,0,0
1569342945718.75,18.56,0,0,0,0,0
1569342945734.38,19.83,0,0,0,0,0
1569342945750,19.7,0,0,0,0,0
1569342945765.63,18.55,0,0,0,0,0
1569342945781.25,16.68,0,0,0,0,0
1569342945796.88,14.38,0,0,0,0,0
1569342945812.5,11.84,0,0,0,0,0
1569342945828.13,9.19,0,0,0,0,0
1569342945843.75,6.65,0,0,0,0,0
1569342945859.38,4.27,0,0,0,0,0
1569342945875,2.12,0,0,0,0,0
1569342945890.63,0.2,0,0,0,0,0
1569342945906.25,-1.52,0,0,0,0,0
1569342945921.88,-3.04,0,0,0,0,0
1569342945937.5,-4.33,0,0,0,0,0
1569342945953.13,-5.38,0,0,0,0,0
1569342945968.75,-6.24,0,0,0,0,0
1569342945984.38,-6.93,0,0,0,0,0
1569342946000,-7.57,0,0,0,0,0
1569342946015.63,-8.18,0,0,0,0,0
1569342946031.25,-8.89,0,0,0,0,0
1569342946046.88,-9.8,0,0,0,0,0
1569342946062.5,-11.04,0,0,0,0,0
1569342946078.13,-12.48,0,0,0,0,0
1569342946093.75,-13.7,0,0,0,0,0
1569342946109.38,-14.03,0,0,0,0,0
1569342946125,-12.74,0,0,0,0,0
1569342946140.63,-9.53,0,0,0,0,0
1569342946156.25,-4.7,0,0,0,0,0
1569342946171.88,0.85,0,0,0,0,0
1569342946187.5,5.91,0,0,0,0,0
1569342946203.13,9.43,0,0,0,0,0
1569342946218.75,10.96,0,0,0,0,0
1569342946234.38,10.71,0,0,0,0,0
1569342946250,9.35,0,0,0,0,0
1569342946265.63,7.75,0,0,0,0,0
1569342946281.25,6.5,0,0,0,0,0
1569342946296.88,5.88,0,0,0,0,0
1569342946312.5,5.84,0,0,0,0,0
1569342946328.13,6.11,0,0,0,0,0
1569342946343.75,6.45,0,0,0,0,0
1569342946359.38,6.59,0,0,0,0,0
1569342946375,6.28,0,0,0,0,0
1569342946390.63,5.28,0,0,0,0,0
1569342946406.25,3.42,0,0,0,0,0
1569342946421.88,0.65,0,0,0,0,0
1569342946437.5,-2.81,0,0,0,0,0
1569342946453.13,-6.53,0,0,0,0,0
1569342946468.75,-9.9,0,0,0,0,0
1569342946484.38,-12.36,0,0,0,0,0
1569342946500,-13.63,0,0,0,0,0
1569342946515.63,-13.76,0,0,0,0,0
1569342946531.25,-13.19,0,0,0,0,0
1569342946546.88,-12.5,0,0,0,0,0
1569342946562.5,-12.26,0,0,0,0,0
1569342946578.13,-12.71,0,0,0,0,0
1569342946593.75,-13.66,0,0,0,0,0
1569342946609.38,-14.49,0,0,0,0,0
1569342946625,-14.34,0,0,0,0,0
1569342946640.63,-12.56,0,0,0,0,0
1569342946656.25,-9.01,0,0,0,0,0
1569342946671.88,-4.11,0,0,0,0,0
1569342946687.5,1.22,0,0,0,0,0
1569342946703.13,5.94,0,0,0,0,0
1569342946718.75,9.25,0,0,0,0,0
1569342946734.38,10.87,0,0,0,0,0
1569342946750,10.95,0,0,0,0,0
1569342946765.63,10,0,0,0,0,0
1569342946781.25,8.51,0,0,0,0,0
1569342946796.88,6.86,0,0,0,0,0
1569342946812.5,5.31,0,0,0,0,0
1569342946828.13,4.01,0,0,0,0,0
1569342946843.75,3.08,0,0,0,0,0
1569342946859.38,2.56,0,0,0,0,0
1569342946875,2.35,0,0,0,0,0
1569342946890.63,2.23,0,0,0,0,0
1569342946906.25,1.98,0,0,0,0,0
1569342946921.88,1.38,0,0,0,0,0
1569342946937.5,0.4,0,0,0,0,0
1569342946953.13,-0.85,0,0,0,0,0
1569342946968.75,-2.14,0,0,0,0,0
1569342946984.38,-3.24,0,0,0,0,0
1569342947000,-4.08,0,0,0,0,0
1569342947015.63,-4.71,0,0,0,0,0
1569342947031.25,-5.35,0,0,0,0,0
1569342947046.88,-6.29,0,0,0,0,0
1569342947062.5,-7.71,0,0,0,0,0
1569342947078.13,-9.62,0,0,0,0,0
1569342947093.75,-11.71,0,0,0,0,0
1569342947109.38,-13.43,0,0,0,0,0
1569342947125,-14.02,0,0,0,0,0
1569342947140.63,-12.86,0,0,0,0,0
1569342947156.25,-9.69,0,0,0,0,0
1569342947171.88,-4.79,0,0,0,0,0
1569342947187.5,1.05,0,0,0,0,0
1569342947203.13,6.77,0,0,0,0,0
1569342947218.75,11.41,0,0,0,0,0
1569342947234.38,14.4,0,0,0,0,0
1569342947250,15.66,0,0,0,0,0
1569342947265.63,15.52,0,0,0,0,0
1569342947281.25,14.4,0,0,0,0,0
1569342947296.88,12.73,0,0,0,0,0
1569342947312.5,10.72,0,0,0,0,0
1569342947328.13,8.49,0,0,0,0,0
1569342947343.75,6.11,0,0,0,0,0
1569342947359.38,3.7,0,0,0,0,0
1569342947375,1.39,0,0,0,0,0
1569342947390.63,-0.71,0,0,0,0,0
1569342947406.25,-2.53,0,0,0,0,0
1569342947421.88,-4.1,0,0,0,0,0
1569342947437.5,-5.42,0,0,0,0,0
1569342947453.13,-6.53,0,0,0,0,0
1569342947468.75,-7.46,0,0,0,0,0
1569342947484.38,-8.22,0,0,0,0,0
1569342947500,-8.83,0,0,0,0,0
1569342947515.63,-9.27,0,0,0,0,0
1569342947531.25,-9.58,0,0,0,0,0
1569342947546.88,-9.86,0,0,0,0,0
1569342947562.5,-10.35,0,0,0,0,0
1569342947578.13,-11.24,0,0,0,0,0
1569342947593.75,-12.58,0,0,0,0,0
1569342947609.38,-14.05,0,0,0,0,0
1569342947625,-14.93,0,0,0,0,0
1569342947640.63,-14.32,0,0,0,0,0
1569342947656.25,-11.56,0,0,0,0,0
1569342947671.88,-6.64,0,0,0,0,0
1569342947687.5,-0.32,0,0,0,0,0
1569342947703.13,6.04,0,0,0,0,0
1569342947718.75,11.12,0,0,0,0,0
1569342947734.38,14,0,0,0,0,0
1569342947750,14.55,0,0,0,0,0
1569342947765.63,13.32,0,0,0,0,0
1569342947781.25,11.11,0,0,0,0,0
1569342947796.88,8.68,0,0,0,0,0
1569342947812.5,6.44,0,0,0,0,0
1569342947828.13,4.55,0,0,0,0,0
1569342947843.75,3.01,0,0,0,0,0
1569342947859.38,1.75,0,0,0,0,0
1569342947875,0.72,0,0,0,0,0
1569342947890.63,-0.13,0,0,0,0,0
1569342947906.25,-0.84,0,0,0,0,0
1569342947921.88,-1.47,0,0,0,0,0
1569342947937.5,-2.05,0,0,0,0,0
1569342947953.13,-2.72,0,0,0,0,0
1569342947968.75,-3.55,0,0,0,0,0
1569342947984.38,-4.69,0,0,0,0,0
1569342948000,-6.2,0,0,0,0,0
1569342948015.63,-8.09,0,0,0,0,0
1569342948031.25,-10.3,0,0,0,0,0
1569342948046.88,-12.75,0,0,0,0,0
1569342948062.5,-15.42,0,0,0,0,0
1569342948078.13,-18.19,0,0,0,0,0
1569342948093.75,-20.82,0,0,0,0,0
1569342948109.38,-22.71,0,0,0,0,0
1569342948125,-23.08,0,0,0,0,0
1569342948140.63,-21.2,0,0,0,0,0
1569342948156.25,-16.8,0,0,0,0,0
1569342948171.88,-10.27,0,0,0,0,0
1569342948187.5,-2.68,0,0,0,0,0
1569342948203.13,4.64,0,0,0,0,0
1569342948218.75,10.57,0,0,0,0,0
1569342948234.38,14.53,0,0,0,0,0
1569342948250,16.53,0,0,0,0,0
1569342948265.63,17.01,0,0,0,0,0
1569342948281.25,16.49,0,0,0,0,0
1569342948296.88,15.39,0,0,0,0,0
1569342948312.5,13.99,0,0,0,0,0
1569342948328.13,12.49,0,0,0,0,0
1569342948343.75,11,0,0,0,0,0
1569342948359.38,9.65,0,0,0,0,0
1569342948375,8.42,0,0,0,0,0
1569342948390.63,7.24,0,0,0,0,0
1569342948406.25,6.01,0,0,0,0,0
1569342948421.88,4.62,0,0,0,0,0
1569342948437.5,3.09,0,0,0,0,0
1569342948453.13,1.43,0,0,0,0,0
1569342948468.75,-0.29,0,0,0,0,0
1569342948484.38,-2.03,0,0,0,0,0
1569342948500,-3.81,0,0,0,0,0
1569342948515.63,-5.59,0,0,0,0,0
1569342948531.25,-7.41,0,0,0,0,0
1569342948546.88,-9.34,0,0,0,0,0
1569342948562.5,-11.54,0,0,0,0,0
1569342948578.13,-14.13,0,0,0,0,0
1569342948593.75,-16.98,0,0,0,0,0
1569342948609.38,-19.54,0,0,0,0,0
1569342948625,-20.95,0,0,0,0,0
1569342948640.63,-20.24,0,0,0,0,0
1569342948656.25,-16.85,0,0,0,0,0
1569342948671.88,-10.93,0,0,0,0,0
1569342948687.5,-3.35,0,0,0,0,0
1569342948703.13,4.51,0,0,0,0,0
1569342948718.75,11.4,0,0,0,0,0
1569342948734.38,16.46,0,0,0,0,0
1569342948750,19.52,0,0,0,0,0
1569342948765.63,20.8,0,0,0,0,0
1569342948781.25,20.71,0,0,0,0,0
1569342948796.88,19.56,0,0,0,0,0
1569342948812.5,17.54,0,0,0,0,0
1569342948828.13,14.87,0,0,0,0,0
1569342948843.75,11.88,0,0,0,0,0
1569342948859.38,9.04,0,0,0,0,0
1569342948875,6.79,0,0,0,0,0
1569342948890.63,5.32,0,0,0,0,0
1569342948906.25,4.52,0,0,0,0,0
1569342948921.88,4.04,0,0,0,0,0
1569342948937.5,3.42,0,0,0,0,0
1569342948953.13,2.37,0,0,0,0,0
1569342948968.75,0.81,0,0,0,0,0
1569342948984.38,-1.03,0,0,0,0,0
1569342949000,-2.86,0,0,0,0,0
1569342949015.63,-4.37,0,0,0,0,0
1569342949031.25,-5.46,0,0,0,0,0
1569342949046.88,-6.18,0,0,0,0,0
1569342949062.5,-6.84,0,0,0,0,0
1569342949078.13,-7.86,0,0,0,0,0
1569342949093.75,-9.65,0,0,0,0,0
1569342949109.38,-12.39,0,0,0,0,0
1569342949125,-15.83,0,0,0,0,0
1569342949140.63,-19.19,0,0,0,0,0
1569342949156.25,-21.34,0,0,0,0,0
1569342949171.88,-21.1,0,0,0,0,0
1569342949187.5,-17.69,0,0,0,0,0
1569342949203.13,-11.11,0,0,0,0,0
1569342949218.75,-2.3,0,0,0,0,0
1569342949234.38,7.09,0,0,0,0,0
1569342949250,15.29,0,0,0,0,0
1569342949265.63,21.01,0,0,0,0,0
1569342949281.25,23.77,0,0,0,0,0
1569342949296.88,23.97,0,0,0,0,0
1569342949312.5,22.45,0,0,0,0,0
1569342949328.13,20.17,0,0,0,0,0
1569342949343.75,17.77,0,0,0,0,0
1569342949359.38,15.52,0,0,0,0,0
1569342949375,13.38,0,0,0,0,0
1569342949390.63,11.31,0,0,0,0,0
1569342949406.25,9.4,0,0,0,0,0
1569342949421.88,7.78,0,0,0,0,0
1569342949437.5,6.56,0,0,0,0,0
1569342949453.13,5.64,0,0,0,0,0
1569342949468.75,4.75,0,0,0,0,0
1569342949484.38,3.59,0,0,0,0,0
1569342949500,2,0,0,0,0,0
1569342949515.63,0.04,0,0,0,0,0
1569342949531.25,-2.01,0,0,0,0,0
1569342949546.88,-3.84,0,0,0,0,0
1569342949562.5,-5.26,0,0,0,0,0
1569342949578.13,-6.3,0,0,0,0,0
1569342949593.75,-7.13,0,0,0,0,0
1569342949609.38,-7.95,0,0,0,0,0
1569342949625,-9.04,0,0,0,0,0
1569342949640.63,-10.62,0,0,0,0,0
1569342949656.25,-12.84,0,0,0,0,0
1569342949671.88,-15.68,0,0,0,0,0
1569342949687.5,-18.79,0,0,0,0,0
1569342949703.13,-21.38,0,0,0,0,0
1569342949718.75,-22.38,0,0,0,0,0
1569342949734.38,-20.81,0,0,0,0,0
1569342949750,-16.3,0,0,0,0,0
1569342949765.63,-9.37,0,0,0,0,0
1569342949781.25,-1.34,0,0,0,0,0
1569342949796.88,6.17,0,0,0,0,0
1569342949812.5,11.81,0,0,0,0,0
1569342949828.13,14.98,0,0,0,0,0
1569342949843.75,15.84,0,0,0,0,0
1569342949859.38,15.02,0,0,0,0,0
1569342949875,13.16,0,0,0,0,0
1569342949890.63,10.73,0,0,0,0,0
1569342949906.25,8.02,0,0,0,0,0
1569342949921.88,5.26,0,0,0,0,0
1569342949937.5,2.78,0,0,0,0,0
1569342949953.13,0.91,0,0,0,0,0
1569342949968.75,-0.12,0,0,0,0,0
1569342949984.38,-0.38,0,0,0,0,0
1569342950000,-0.21,0,0,0,0,0
1569342950015.63,-0.19,0,0,0,0,0
1569342950031.25,-0.72,0,0,0,0,0
1569342950046.88,-1.91,0,0,0,0,0
1569342950062.5,-3.47,0,0,0,0,0
1569342950078.13,-4.91,0,0,0,0,0
1569342950093.75,-5.83,0,0,0,0,0
1569342950109.38,-6.06,0,0,0,0,0
1569342950125,-5.74,0,0,0,0,0
1569342950140.63,-5.31,0,0,0,0,0
1569342950156.25,-5.33,0,0,0,0,0
1569342950171.88,-6.25,0,0,0,0,0
1569342950187.5,-8.23,0,0,0,0,0
1569342950203.13,-11.06,0,0,0,0,0
1569342950218.75,-14.13,0,0,0,0,0
1569342950234.38,-16.5,0,0,0,0,0
1569342950250,-17.08,0,0,0,0,0
1569342950265.63,-14.95,0,0,0,0,0
1569342950281.25,-9.71,0,0,0,0,0
1569342950296.88,-1.85,0,0,0,0,0
1569342950312.5,7.36,0,0,0,0,0
1569342950328.13,16.11,0,0,0,0,0
1569342950343.75,22.69,0,0,0,0,0
1569342950359.38,26.14,0,0,0,0,0
1569342950375,26.44,0,0,0,0,0
1569342950390.63,24.41,0,0,0,0,0
1569342950406.25,21.23,0,0,0,0,0
1569342950421.88,17.88,0,0,0,0,0
1569342950437.5,14.89,0,0,0,0,0
1569342950453.13,12.32,0,0,0,0,0
1569342950468.75,10.01,0,0,0,0,0
1569342950484.38,7.84,0,0,0,0,0
1569342950500,5.85,0,0,0,0,0
1569342950515.63,4.13,0,0,0,0,0
1569342950531.25,2.69,0,0,0,0,0
1569342950546.88,1.39,0,0,0,0,0
1569342950562.5,0.06,0,0,0,0,0
1569342950578.13,-1.43,0,0,0,0,0
1569342950593.75,-3.01,0,0,0,0,0
1569342950609.38,-4.44,0,0,0,0,0
1569342950625,-5.47,0,0,0,0,0
1569342950640.63,-5.94,0,0,0,0,0
1569342950656.25,-6.03,0,0,0,0,0
1569342950671.88,-6.2,0,0,0,0,0
1569342950687.5,-7.09,0,0,0,0,0
1569342950703.13,-9.26,0,0,0,0,0
1569342950718.75,-12.83,0,0,0,0,0
1569342950734.38,-17.22,0,0,0,0,0
1569342950750,-21.16,0,0,0,0,0
1569342950765.63,-23.13,0,0,0,0,0
1569342950781.25,-21.81,0,0,0,0,0
1569342950796.88,-16.84,0,0,0,0,0
1569342950812.5,-8.88,0,0,0,0,0
1569342950828.13,0.37,0,0,0,0,0
1569342950843.75,8.98,0,0,0,0,0
1569342950859.38,15.35,0,0,0,0,0
1569342950875,18.8,0,0,0,0,0
1569342950890.63,19.52,0,0,0,0,0
1569342950906.25,18.31,0,0,0,0,0
1569342950921.88,16.09,0,0,0,0,0
1569342950937.5,13.59,0,0,0,0,0
1569342950953.13,11.2,0,0,0,0,0
1569342950968.75,9.12,0,0,0,0,0
1569342950984.38,7.4,0,0,0,0,0
1569342951000,6.09,0,0,0,0,0
1569342951015.63,5.14,0,0,0,0,0
1569342951031.25,4.44,0,0,0,0,0
1569342951046.88,3.79,0,0,0,0,0
1569342951062.5,3.05,0,0,0,0,0
1569342951078.13,2.11,0,0,0,0,0
1569342951093.75,0.98,0,0,0,0,0
1569342951109.38,-0.21,0,0,0,0,0
1569342951125,-1.32,0,0,0,0,0
1569342951140.63,-2.22,0,0,0,0,0
1569342951156.25,-2.88,0,0,0,0,0
1569342951171.88,-3.41,0,0,0,0,0
1569342951187.5,-4.06,0,0,0,0,0
1569342951203.13,-5.23,0,0,0,0,0
