Timestamp,BVP,Note,AGG,ED,SIB,Condition
1564762426000,0,0,0,0,0,0
1564762426015.63,0,0,0,0,0,0
1564762426031.25,0,0,0,0,0,0
1564762426046.88,0,0,0,0,0,0
1564762426062.5,0,0,0,0,0,0
1564762426078.13,0,0,0,0,0,0
1564762426093.75,0,0,0,0,0,0
1564762426109.38,0,0,0,0,0,0
1564762426125,0,0,0,0,0,0
1564762426140.63,0,0,0,0,0,0
1564762426156.25,0,0,0,0,0,0
1564762426171.88,0,0,0,0,0,0
1564762426187.5,0,0,0,0,0,0
1564762426203.13,0,0,0,0,0,0
1564762426218.75,0,0,0,0,0,0
1564762426234.38,0,0,0,0,0,0
1564762426250,0,0,0,0,0,0
1564762426265.63,0,0,0,0,0,0
1564762426281.25,0,0,0,0,0,0
1564762426296.88,0,0,0,0,0,0
1564762426312.5,0,0,0,0,0,0
1564762426328.13,0,0,0,0,0,0
1564762426343.75,0,0,0,0,0,0
1564762426359.38,0,0,0,0,0,0
1564762426375,0,0,0,0,0,0
1564762426390.63,0,0,0,0,0,0
1564762426406.25,0,0,0,0,0,0
1564762426421.88,0,0,0,0,0,0
1564762426437.5,0,0,0,0,0,0
1564762426453.13,0,0,0,0,0,0
1564762426468.75,0,0,0,0,0,0
1564762426484.38,0,0,0,0,0,0
1564762426500,0,0,0,0,0,0
1564762426515.63,0,0,0,0,0,0
1564762426531.25,0,0,0,0,0,0
1564762426546.88,0,0,0,0,0,0
1564762426562.5,0,0,0,0,0,0
1564762426578.13,0,0,0,0,0,0
1564762426593.75,0,0,0,0,0,0
1564762426609.38,0,0,0,0,0,0
1564762426625,0,0,0,0,0,0
1564762426640.63,0,0,0,0,0,0
1564762426656.25,0,0,0,0,0,0
1564762426671.88,0,0,0,0,0,0
1564762426687.5,0,1,0,0,0,0
1564762426703.13,0,1,0,0,0,0
1564762426718.75,0,1,0,0,0,0
1564762426734.38,0,1,0,0,0,0
1564762426750,0,1,0,0,0,0
1564762426765.63,0,1,0,0,0,0
1564762426781.25,0,1,0,0,0,0
1564762426796.88,0,1,0,0,0,0
1564762426812.5,0,1,0,0,0,0
1564762426828.13,0,1,0,0,0,0
1564762426843.75,0,1,0,0,0,0
1564762426859.38,0,1,0,0,0,0
1564762426875,0,1,0,0,0,0
1564762426890.63,0,1,0,0,0,0
1564762426906.25,0,1,0,0,0,0
1564762426921.88,0,1,0,0,0,0
1564762426937.5,0,1,0,0,0,0
1564762426953.13,0,1,0,0,0,0
1564762426968.75,0,1,0,0,0,0
1564762426984.38,0,1,0,0,0,0
1564762427000,0,1,0,0,0,0
1564762427015.63,0,1,0,0,0,0
1564762427031.25,0,1,0,0,0,0
1564762427046.88,0,1,0,0,0,0
1564762427062.5,0,1,0,0,0,0
1564762427078.13,0,0,0,0,0,0
1564762427093.75,0,0,0,0,0,0
1564762427109.38,0,0,0,0,0,0
1564762427125,0,0,0,0,0,0
1564762427140.63,0,0,0,0,0,0
1564762427156.25,0,0,0,0,0,0
1564762427171.88,0,0,0,0,0,0
1564762427187.5,0,0,0,0,0,0
1564762427203.13,0,0,0,0,0,0
1564762427218.75,0,0,0,0,0,0
1564762427234.38,0,0,0,0,0,0
1564762427250,0,0,0,0,0,0
1564762427265.63,0,0,0,0,0,0
1564762427281.25,0,0,0,0,0,0
1564762427296.88,0,0,0,0,0,0
1564762427312.5,0,0,0,0,0,0
1564762427328.13,0,0,0,0,0,0
1564762427343.75,0,0,0,0,0,0
1564762427359.38,0,0,0,0,0,0
1564762427375,0,0,0,0,0,0
1564762427390.63,0,0,0,0,0,0
1564762427406.25,0,0,0,0,0,0
1564762427421.88,0,0,0,0,0,0
1564762427437.5,0,0,0,0,0,0
1564762427453.13,0,0,0,0,0,0
1564762427468.75,0,0,0,0,0,0
1564762427484.38,0,0,0,0,0,0
1564762427500,0,0,0,0,0,0
1564762427515.63,0,0,0,0,0,0
1564762427531.25,0,0,0,0,0,0
1564762427546.88,0,0,0,0,0,0
1564762427562.5,0,0,0,0,0,0
1564762427578.13,0,0,0,0,0,0
1564762427593.75,0,0,0,0,0,0
1564762427609.38,0,0,0,0,0,0
1564762427625,0,0,0,0,0,0
1564762427640.63,0,0,0,0,0,0
1564762427656.25,0,0,0,0,0,0
1564762427671.88,0,0,0,0,0,0
1564762427687.5,0,0,0,0,0,0
1564762427703.13,0,0,0,0,0,0
1564762427718.75,0,0,0,0,0,0
1564762427734.38,0,0,0,0,0,0
1564762427750,0,0,0,0,0,0
1564762427765.63,0,0,0,0,0,0
1564762427781.25,0,0,0,0,0,0
1564762427796.88,0,0,0,0,0,0
1564762427812.5,0,0,0,0,0,0
1564762427828.13,0,0,0,0,0,0
1564762427843.75,0,0,0,0,0,0
1564762427859.38,0,0,0,0,0,0
1564762427875,0,0,0,0,0,0
1564762427890.63,0,0,0,0,0,0
1564762427906.25,0,0,0,0,0,0
1564762427921.88,0,0,0,0,0,0
1564762427937.5,0,0,0,0,0,0
1564762427953.13,0,0,0,0,0,0
1564762427968.75,0,0,0,0,0,0
1564762427984.38,0,0,0,0,0,0
1564762428000,0,0,0,0,0,0
1564762428015.63,0,0,0,0,0,0
1564762428031.25,0,0,0,0,0,0
1564762428046.88,0,0,0,0,0,0
1564762428062.5,0,0,0,0,0,0
1564762428078.13,0,0,0,0,0,0
1564762428093.75,0,0,0,0,0,0
1564762428109.38,0,0,0,0,0,0
1564762428125,0,0,0,0,0,0
1564762428140.63,0,0,0,0,0,0
1564762428156.25,0,0,0,0,0,0
1564762428171.88,0,0,0,0,0,0
1564762428187.5,0,0,0,0,0,0
1564762428203.13,0,0,0,0,0,0
1564762428218.75,0,0,0,0,0,0
1564762428234.38,0,0,0,0,0,0
1564762428250,0,0,0,0,0,0
1564762428265.63,0,0,0,0,0,0
1564762428281.25,0,0,0,0,0,0
1564762428296.88,0,0,0,0,0,0
1564762428312.5,0,0,0,0,0,0
1564762428328.13,0,0,0,0,0,0
1564762428343.75,0,0,0,0,0,0
1564762428359.38,0,0,0,0,0,0
1564762428375,0,0,0,0,0,0
1564762428390.63,0,0,0,0,0,0
1564762428406.25,0,0,0,0,0,0
1564762428421.88,0,0,0,0,0,0
1564762428437.5,0,0,0,0,0,0
1564762428453.13,0,0,0,0,0,0
1564762428468.75,0,0,0,0,0,0
1564762428484.38,0,0,0,0,0,0
1564762428500,0,0,0,0,0,0
1564762428515.63,0,0,0,0,0,0
1564762428531.25,0,0,0,0,0,0
1564762428546.88,0,0,0,0,0,0
1564762428562.5,0,0,0,0,0,0
1564762428578.13,0,0,0,0,0,0
1564762428593.75,0,0,0,0,0,0
1564762428609.38,0,0,0,0,0,0
1564762428625,0,0,0,0,0,0
1564762428640.63,0,0,0,0,0,0
1564762428656.25,0,0,0,0,0,0
1564762428671.88,0,0,0,0,0,0
1564762428687.5,0,0,0,0,0,0
1564762428703.13,0,0,0,0,0,0
1564762428718.75,0,0,0,0,0,0
1564762428734.38,0,0,0,0,0,0
1564762428750,0,0,0,0,0,0
1564762428765.63,0,0,0,0,0,0
1564762428781.25,0,0,0,0,0,0
1564762428796.88,0,0,0,0,0,0
1564762428812.5,0,0,0,0,0,0
1564762428828.13,0,0,0,0,0,0
1564762428843.75,0,0,0,0,0,0
1564762428859.38,0,0,0,0,0,0
1564762428875,0,0,0,0,0,0
1564762428890.63,0,0,0,0,0,0
1564762428906.25,0,0,0,0,0,0
1564762428921.88,0,0,0,0,0,0
1564762428937.5,0,0,0,0,0,0
1564762428953.13,0,0,0,0,0,0
1564762428968.75,0,0,0,0,0,0
1564762428984.38,0,0,0,0,0,0
1564762429000,0,0,0,0,0,0
1564762429015.63,0,0,0,0,0,0
1564762429031.25,0,0,0,0,0,0
1564762429046.88,0,0,0,0,0,0
1564762429062.5,0,0,0,0,0,0
1564762429078.13,0,0,0,0,0,0
1564762429093.75,0,0,0,0,0,0
1564762429109.38,0,0,0,0,0,0
1564762429125,0,0,0,0,0,0
1564762429140.63,0,0,0,0,0,0
1564762429156.25,0,0,0,0,0,0
1564762429171.88,0,0,0,0,0,0
1564762429187.5,0,0,0,0,0,0
1564762429203.13,0,0,0,0,0,0
1564762429218.75,0,0,0,0,0,0
1564762429234.38,0,0,0,0,0,0
1564762429250,0,0,0,0,0,0
1564762429265.63,0,0,0,0,0,0
1564762429281.25,0,0,0,0,0,0
1564762429296.88,0,0,0,0,0,0
1564762429312.5,0,0,0,0,0,0
1564762429328.13,0,0,0,0,0,0
1564762429343.75,0,0,0,0,0,0
1564762429359.38,0,0,0,0,0,0
1564762429375,0,0,0,0,0,0
1564762429390.63,0,0,0,0,0,0
1564762429406.25,0,0,0,0,0,0
1564762429421.88,0,0,0,0,0,0
1564762429437.5,0,0,0,0,0,0
1564762429453.13,0,0,0,0,0,0
1564762429468.75,0,0,0,0,0,0
1564762429484.38,0,0,0,0,0,0
1564762429500,0,0,0,0,0,0
1564762429515.63,0,0,0,0,0,0
1564762429531.25,0,0,0,0,0,0
1564762429546.88,0,0,0,0,0,0
1564762429562.5,0,0,0,0,0,0
1564762429578.13,0,0,0,0,0,0
1564762429593.75,0,0,0,0,0,0
1564762429609.38,0,0,0,0,0,0
1564762429625,0,0,0,0,0,0
1564762429640.63,0,0,0,0,0,0
1564762429656.25,0,0,0,0,0,0
1564762429671.88,0,0,0,0,0,0
1564762429687.5,0,0,0,0,0,0
1564762429703.13,0,0,0,0,0,0
1564762429718.75,0,0,0,0,0,0
1564762429734.38,0,0,0,0,0,0
1564762429750,0,0,0,0,0,0
1564762429765.63,0,0,0,0,0,0
1564762429781.25,0,0,0,0,0,0
1564762429796.88,0,0,0,0,0,0
1564762429812.5,0,0,0,0,0,0
1564762429828.13,0,0,0,0,0,0
1564762429843.75,0,0,0,0,0,0
1564762429859.38,0,0,0,0,0,0
1564762429875,0,0,0,0,0,0
1564762429890.63,0,0,0,0,0,0
1564762429906.25,0,0,0,0,0,0
1564762429921.88,0,0,0,0,0,0
1564762429937.5,0,0,0,0,0,0
1564762429953.13,0,0,0,0,0,0
1564762429968.75,0,0,0,0,0,0
1564762429984.38,0,0,0,0,0,0
1564762430000,-0,0,0,0,0,0
1564762430015.63,-0,0,0,0,0,0
1564762430031.25,-0,0,0,0,0,0
1564762430046.88,-0,0,0,0,0,0
1564762430062.5,-0,0,0,0,0,0
1564762430078.13,-0,0,0,0,0,0
1564762430093.75,-0,0,0,0,0,0
1564762430109.38,-0,0,0,0,0,0
1564762430125,-0,0,0,0,0,0
1564762430140.63,-0,0,0,0,0,0
1564762430156.25,0,0,0,0,0,0
1564762430171.88,0.01,0,0,0,0,0
1564762430187.5,0.01,0,0,0,0,0
1564762430203.13,-0,0,0,0,0,0
1564762430218.75,-0.03,0,0,0,0,0
1564762430234.38,-0.05,0,0,0,0,0
1564762430250,-0.05,0,0,0,0,0
1564762430265.63,0,0,0,0,0,0
1564762430281.25,0.13,0,0,0,0,0
1564762430296.88,0.36,0,0,0,0,0
1564762430312.5,0.66,0,0,0,0,0
1564762430328.13,1.01,0,0,0,0,0
1564762430343.75,1.37,0,0,0,0,0
1564762430359.38,1.72,0,0,0,0,0
1564762430375,2.06,0,0,0,0,0
1564762430390.63,2.4,0,0,0,0,0
1564762430406.25,2.79,0,0,0,0,0
1564762430421.88,3.24,0,0,0,0,0
1564762430437.5,3.8,0,0,0,0,0
1564762430453.13,4.42,0,0,0,0,0
1564762430468.75,5.06,0,0,0,0,0
1564762430484.38,5.66,0,0,0,0,0
1564762430500,6.2,0,0,0,0,0
1564762430515.63,6.68,0,0,0,0,0
1564762430531.25,7.15,0,0,0,0,0
1564762430546.88,7.68,0,0,0,0,0
1564762430562.5,8.31,0,0,0,0,0
1564762430578.13,9.14,0,0,0,0,0
1564762430593.75,10.09,0,0,0,0,0
1564762430609.38,11.04,0,0,0,0,0
1564762430625,11.88,0,0,0,0,0
1564762430640.63,12.56,0,0,0,0,0
1564762430656.25,13.14,0,0,0,0,0
1564762430671.88,13.76,0,0,0,0,0
1564762430687.5,14.65,0,0,0,0,0
1564762430703.13,15.96,0,0,0,0,0
1564762430718.75,17.91,0,0,0,0,0
1564762430734.38,20.32,0,0,0,0,0
1564762430750,22.9,0,0,0,0,0
1564762430765.63,25.38,0,0,0,0,0
1564762430781.25,27.58,0,0,0,0,0
1564762430796.88,29.57,0,0,0,0,0
1564762430812.5,31.68,0,0,0,0,0
1564762430828.13,34.32,0,0,0,0,0
1564762430843.75,37.81,0,0,0,0,0
1564762430859.38,42.54,0,0,0,0,0
1564762430875,48.15,0,0,0,0,0
1564762430890.63,54.1,0,0,0,0,0
1564762430906.25,59.83,0,0,0,0,0
1564762430921.88,64.97,0,0,0,0,0
1564762430937.5,69.58,0,0,0,0,0
1564762430953.13,74.14,0,0,0,0,0
1564762430968.75,79.34,0,0,0,0,0
1564762430984.38,85.71,0,0,0,0,0
1564762431000,93.76,0,0,0,0,0
1564762431015.63,103,0,0,0,0,0
1564762431031.25,112.62,0,0,0,0,0
1564762431046.88,121.73,0,0,0,0,0
1564762431062.5,129.77,0,0,0,0,0
1564762431078.13,136.75,0,0,0,0,0
1564762431093.75,143.3,0,0,0,0,0
1564762431109.38,150.75,0,0,0,0,0
1564762431125,157.77,0,0,0,0,0
1564762431140.63,166.64,0,0,0,0,0
1564762431156.25,177.95,0,0,0,0,0
1564762431171.88,191.79,0,0,0,0,0
1564762431187.5,206.97,0,0,0,0,0
1564762431203.13,220.57,0,0,0,0,0
1564762431218.75,228.25,0,0,0,0,0
1564762431234.38,225.36,0,0,0,0,0
1564762431250,208.53,0,0,0,0,0
1564762431265.63,176.87,0,0,0,0,0
1564762431281.25,132.76,0,0,0,0,0
1564762431296.88,80.05,0,0,0,0,0
1564762431312.5,23.07,0,0,0,0,0
1564762431328.13,-34.94,0,0,0,0,0
1564762431343.75,-92.44,0,0,0,0,0
1564762431359.38,-149.16,0,0,0,0,0
1564762431375,-205.23,0,0,0,0,0
1564762431390.63,-260.37,0,0,0,0,0
1564762431406.25,-313.74,0,0,0,0,0
1564762431421.88,-363.87,0,0,0,0,0
1564762431437.5,-409.83,0,0,0,0,0
1564762431453.13,-450.91,0,0,0,0,0
1564762431468.75,-486.5,0,0,0,0,0
1564762431484.38,-515.74,0,0,0,0,0
1564762431500,-537.23,0,0,0,0,0
1564762431515.63,-549.22,0,0,0,0,0
1564762431531.25,-549.96,0,0,0,0,0
1564762431546.88,-538.37,0,0,0,0,0
1564762431562.5,-514.21,0,0,0,0,0
1564762431578.13,-478.67,0,0,0,0,0
1564762431593.75,-433.88,0,0,0,0,0
1564762431609.38,-382.45,0,0,0,0,0
1564762431625,-327.02,0,0,0,0,0
1564762431640.63,-269.84,0,0,0,0,0
1564762431656.25,-212.63,0,0,0,0,0
1564762431671.88,-156.66,0,0,0,0,0
1564762431687.5,-102.95,0,0,0,0,0
1564762431703.13,-52.37,0,0,0,0,0
1564762431718.75,-5.9,0,0,0,0,0
1564762431734.38,35.58,0,0,0,0,0
1564762431750,71.43,0,0,0,0,0
1564762431765.63,101.35,0,0,0,0,0
1564762431781.25,125.5,0,0,0,0,0
1564762431796.88,144.38,0,0,0,0,0
1564762431812.5,158.69,0,0,0,0,0
1564762431828.13,169.15,0,0,0,0,0
1564762431843.75,176.37,0,0,0,0,0
1564762431859.38,180.75,0,0,0,0,0
1564762431875,182.57,0,0,0,0,0
1564762431890.63,182.07,0,0,0,0,0
1564762431906.25,179.51,0,0,0,0,0
1564762431921.88,175.24,0,0,0,0,0
1564762431937.5,169.66,0,0,0,0,0
1564762431953.13,163.19,0,0,0,0,0
1564762431968.75,156.18,0,0,0,0,0
1564762431984.38,148.85,0,0,0,0,0
1564762432000,141.37,0,0,0,0,0
1564762432015.63,133.79,0,0,0,0,0
1564762432031.25,126.15,0,0,0,0,0
1564762432046.88,118.5,0,0,0,0,0
1564762432062.5,110.89,0,0,0,0,0
1564762432078.13,103.41,0,0,0,0,0
1564762432093.75,96.11,0,0,0,0,0
1564762432109.38,89.04,0,0,0,0,0
1564762432125,82.23,0,0,0,0,0
1564762432140.63,75.71,0,0,0,0,0
1564762432156.25,69.47,0,0,0,0,0
1564762432171.88,63.52,0,0,0,0,0
1564762432187.5,57.88,0,0,0,0,0
1564762432203.13,52.55,0,0,0,0,0
1564762432218.75,47.54,0,0,0,0,0
1564762432234.38,42.86,0,0,0,0,0
1564762432250,38.49,0,0,0,0,0
1564762432265.63,34.44,0,0,0,0,0
1564762432281.25,30.69,0,0,0,0,0
1564762432296.88,27.25,0,0,0,0,0
1564762432312.5,24.09,0,0,0,0,0
1564762432328.13,21.23,0,0,0,0,0
1564762432343.75,18.65,0,0,0,0,0
1564762432359.38,16.36,0,0,0,0,0
1564762432375,14.34,0,0,0,0,0
1564762432390.63,12.59,0,0,0,0,0
1564762432406.25,11.09,0,0,0,0,0
1564762432421.88,9.84,0,0,0,0,0
1564762432437.5,8.82,0,0,0,0,0
1564762432453.13,8.01,0,0,0,0,0
1564762432468.75,7.4,0,0,0,0,0
1564762432484.38,6.97,0,0,0,0,0
1564762432500,6.71,0,0,0,0,0
1564762432515.63,6.6,0,0,0,0,0
1564762432531.25,6.62,0,0,0,0,0
1564762432546.88,6.77,0,0,0,0,0
1564762432562.5,7.03,0,0,0,0,0
1564762432578.13,7.4,0,0,0,0,0
1564762432593.75,7.85,0,0,0,0,0
1564762432609.38,8.39,0,0,0,0,0
1564762432625,9.01,0,0,0,0,0
1564762432640.63,9.71,0,0,0,0,0
1564762432656.25,10.48,0,0,0,0,0
1564762432671.88,11.32,0,0,0,0,0
1564762432687.5,12.22,0,0,0,0,0
1564762432703.13,13.19,0,0,0,0,0
1564762432718.75,14.21,0,0,0,0,0
1564762432734.38,15.3,0,0,0,0,0
1564762432750,16.45,0,0,0,0,0
1564762432765.63,17.68,0,0,0,0,0
1564762432781.25,18.98,0,0,0,0,0
1564762432796.88,20.37,0,0,0,0,0
1564762432812.5,21.82,0,0,0,0,0
1564762432828.13,23.32,0,0,0,0,0
1564762432843.75,24.83,0,0,0,0,0
1564762432859.38,26.29,0,0,0,0,0
1564762432875,27.61,0,0,0,0,0
1564762432890.63,28.67,0,0,0,0,0
1564762432906.25,29.34,0,0,0,0,0
1564762432921.88,29.47,0,0,0,0,0
1564762432937.5,28.94,0,0,0,0,0
1564762432953.13,27.64,0,0,0,0,0
1564762432968.75,25.5,0,0,0,0,0
1564762432984.38,22.54,0,0,0,0,0
1564762433000,18.81,0,0,0,0,0
1564762433015.63,14.39,0,0,0,0,0
1564762433031.25,9.49,0,0,0,0,0
1564762433046.88,4.31,0,0,0,0,0
1564762433062.5,-0.89,0,0,0,0,0
1564762433078.13,-5.86,0,0,0,0,0
1564762433093.75,-10.36,0,0,0,0,0
1564762433109.38,-14.22,0,0,0,0,0
1564762433125,-17.29,0,0,0,0,0
1564762433140.63,-19.5,0,0,0,0,0
1564762433156.25,-20.84,0,0,0,0,0
1564762433171.88,-21.35,0,0,0,0,0
1564762433187.5,-21.14,0,0,0,0,0
1564762433203.13,-20.33,0,0,0,0,0
1564762433218.75,-19.05,0,0,0,0,0
1564762433234.38,-17.46,0,0,0,0,0
1564762433250,-15.66,0,0,0,0,0
1564762433265.63,-13.76,0,0,0,0,0
1564762433281.25,-11.81,0,0,0,0,0
1564762433296.88,-9.84,0,0,0,0,0
1564762433312.5,-7.86,0,0,0,0,0
1564762433328.13,-5.89,0,0,0,0,0
1564762433343.75,-3.92,0,0,0,0,0
1564762433359.38,-1.96,0,0,0,0,0
1564762433375,0.03,0,0,0,0,0
1564762433390.63,2.06,0,0,0,0,0
1564762433406.25,4.17,0,0,0,0,0
1564762433421.88,6.38,0,0,0,0,0
1564762433437.5,8.74,0,0,0,0,0
1564762433453.13,11.3,0,0,0,0,0
1564762433468.75,14.01,0,0,0,0,0
1564762433484.38,16.85,0,0,0,0,0
1564762433500,19.8,0,0,0,0,0
1564762433515.63,22.86,0,0,0,0,0
1564762433531.25,26.04,0,0,0,0,0
1564762433546.88,29.32,0,0,0,0,0
1564762433562.5,32.75,0,0,0,0,0
1564762433578.13,36.35,0,0,0,0,0
1564762433593.75,40.2,0,0,0,0,0
1564762433609.38,44.17,0,0,0,0,0
1564762433625,48.19,0,0,0,0,0
1564762433640.63,52.24,0,0,0,0,0
1564762433656.25,56.33,0,0,0,0,0
1564762433671.88,60.5,0,0,0,0,0
1564762433687.5,64.81,0,0,0,0,0
1564762433703.13,69.34,0,0,0,0,0
1564762433718.75,74.21,0,0,0,0,0
1564762433734.38,79.59,0,0,0,0,0
1564762433750,85.26,0,0,0,0,0
1564762433765.63,91.15,0,0,0,0,0
1564762433781.25,97.17,0,0,0,0,0
1564762433796.88,103.28,0,0,0,0,0
1564762433812.5,109.46,0,0,0,0,0
1564762433828.13,115.71,0,0,0,0,0
1564762433843.75,122.01,0,0,0,0,0
1564762433859.38,128.42,0,0,0,0,0
1564762433875,135.02,0,0,0,0,0
1564762433890.63,141.44,0,0,0,0,0
1564762433906.25,147.4,0,0,0,0,0
1564762433921.88,152.66,0,0,0,0,0
1564762433937.5,156.95,0,0,0,0,0
1564762433953.13,159.94,0,0,0,0,0
1564762433968.75,161.14,0,0,0,0,0
1564762433984.38,159.89,0,0,0,0,0
1564762434000,155.11,0,0,0,0,0
1564762434015.63,148.73,0,0,0,0,0
1564762434031.25,141.35,0,0,0,0,0
1564762434046.88,133.31,0,0,0,0,0
1564762434062.5,124.83,0,0,0,0,0
1564762434078.13,116.08,0,0,0,0,0
1564762434093.75,107.17,0,0,0,0,0
1564762434109.38,98.21,0,0,0,0,0
1564762434125,89.29,0,0,0,0,0
1564762434140.63,80.49,0,0,0,0,0
1564762434156.25,71.99,0,0,0,0,0
1564762434171.88,63.48,0,0,0,0,0
1564762434187.5,54.87,0,0,0,0,0
1564762434203.13,46.14,0,0,0,0,0
1564762434218.75,37.37,0,0,0,0,0
1564762434234.38,28.69,0,0,0,0,0
1564762434250,20.26,0,0,0,0,0
1564762434265.63,12.23,0,0,0,0,0
1564762434281.25,4.74,0,0,0,0,0
1564762434296.88,-2.06,0,0,0,0,0
1564762434312.5,-8.36,0,0,0,0,0
1564762434328.13,-14.25,0,0,0,0,0
1564762434343.75,-19.69,0,0,0,0,0
1564762434359.38,-24.61,0,0,0,0,0
1564762434375,-28.89,0,0,0,0,0
1564762434390.63,-32.45,0,0,0,0,0
1564762434406.25,-35.29,0,0,0,0,0
1564762434421.88,-37.46,0,0,0,0,0
1564762434437.5,-39.01,0,0,0,0,0
1564762434453.13,-40.22,0,0,0,0,0
1564762434468.75,-41.16,0,0,0,0,0
1564762434484.38,-41.76,0,0,0,0,0
1564762434500,-41.8,0,0,0,0,0
1564762434515.63,-40.99,0,0,0,0,0
1564762434531.25,-39.21,0,0,0,0,0
1564762434546.88,-36.48,0,0,0,0,0
1564762434562.5,-33.09,0,0,0,0,0
1564762434578.13,-29.47,0,0,0,0,0
1564762434593.75,-26.19,0,0,0,0,0
1564762434609.38,-23.58,0,0,0,0,0
1564762434625,-21.7,0,0,0,0,0
1564762434640.63,-20.31,0,0,0,0,0
1564762434656.25,-19.09,0,0,0,0,0
1564762434671.88,-17.84,0,0,0,0,0
1564762434687.5,-16.73,0,0,0,0,0
1564762434703.13,-16.29,0,0,0,0,0
1564762434718.75,-17.31,0,0,0,0,0
1564762434734.38,-20.56,0,0,0,0,0
1564762434750,-26.41,0,0,0,0,0
1564762434765.63,-34.61,0,0,0,0,0
1564762434781.25,-44.41,0,0,0,0,0
1564762434796.88,-54.76,0,0,0,0,0
1564762434812.5,-64.82,0,0,0,0,0
1564762434828.13,-74.24,0,0,0,0,0
1564762434843.75,-83.35,0,0,0,0,0
1564762434859.38,-93.08,0,0,0,0,0
1564762434875,-104.59,0,0,0,0,0
1564762434890.63,-118.84,0,0,0,0,0
1564762434906.25,-136.12,0,0,0,0,0
1564762434921.88,-155.7,0,0,0,0,0
1564762434937.5,-175.79,0,0,0,0,0
1564762434953.13,-193.87,0,0,0,0,0
1564762434968.75,-207.41,0,0,0,0,0
1564762434984.38,-214.62,0,0,0,0,0
1564762435000,-215.12,0,0,0,0,0
1564762435015.63,-210.18,0,0,0,0,0
1564762435031.25,-202.47,0,0,0,0,0
1564762435046.88,-195.17,0,0,0,0,0
1564762435062.5,-190.89,0,0,0,0,0
1564762435078.13,-190.54,0,0,0,0,0
1564762435093.75,-192.85,0,0,0,0,0
1564762435109.38,-194.56,0,0,0,0,0
1564762435125,-191.49,0,0,0,0,0
1564762435140.63,-179.97,0,0,0,0,0
1564762435156.25,-158.16,0,0,0,0,0
1564762435171.88,-126.66,0,0,0,0,0
1564762435187.5,-88.23,0,0,0,0,0
1564762435203.13,-46.83,0,0,0,0,0
1564762435218.75,-6.43,0,0,0,0,0
1564762435234.38,29.93,0,0,0,0,0
1564762435250,60.33,0,0,0,0,0
1564762435265.63,83.75,0,0,0,0,0
1564762435281.25,99.52,0,0,0,0,0
1564762435296.88,107.22,0,0,0,0,0
1564762435312.5,106.86,0,0,0,0,0
1564762435328.13,99.48,0,0,0,0,0
1564762435343.75,87.33,0,0,0,0,0
1564762435359.38,73.57,0,0,0,0,0
1564762435375,61.46,0,0,0,0,0
1564762435390.63,53.21,0,0,0,0,0
1564762435406.25,49.34,0,0,0,0,0
1564762435421.88,48.58,0,0,0,0,0
1564762435437.5,48.68,0,0,0,0,0
1564762435453.13,47.5,0,0,0,0,0
1564762435468.75,43.86,0,0,0,0,0
1564762435484.38,37.83,0,0,0,0,0
1564762435500,30.39,0,0,0,0,0
1564762435515.63,22.69,0,0,0,0,0
1564762435531.25,15.44,0,0,0,0,0
1564762435546.88,8.7,0,0,0,0,0
1564762435562.5,1.82,0,0,0,0,0
1564762435578.13,-6.35,0,0,0,0,0
1564762435593.75,-17.23,0,0,0,0,0
1564762435609.38,-32.24,0,0,0,0,0
1564762435625,-52.12,0,0,0,0,0
1564762435640.63,-76.16,0,0,0,0,0
1564762435656.25,-101.73,0,0,0,0,0
1564762435671.88,-124.44,0,0,0,0,0
1564762435687.5,-139.24,0,0,0,0,0
1564762435703.13,-142.17,0,0,0,0,0
1564762435718.75,-131.82,0,0,0,0,0
1564762435734.38,-109.96,0,0,0,0,0
1564762435750,-80.77,0,0,0,0,0
1564762435765.63,-49.33,0,0,0,0,0
1564762435781.25,-19.87,0,0,0,0,0
1564762435796.88,5.13,0,0,0,0,0
1564762435812.5,24.82,0,0,0,0,0
1564762435828.13,39.18,0,0,0,0,0
1564762435843.75,48.13,0,0,0,0,0
1564762435859.38,51.28,0,0,0,0,0
1564762435875,48.3,0,0,0,0,0
1564762435890.63,39.57,0,0,0,0,0
1564762435906.25,26.68,0,0,0,0,0
1564762435921.88,12.16,0,0,0,0,0
1564762435937.5,-1.14,0,0,0,0,0
1564762435953.13,-10.94,0,0,0,0,0
1564762435968.75,-16.33,0,0,0,0,0
1564762435984.38,-17.91,0,0,0,0,0
1564762436000,-17.33,0,0,0,0,0
1564762436015.63,-16.59,0,0,0,0,0
1564762436031.25,-17.3,0,0,0,0,0
1564762436046.88,-20.23,0,0,0,0,0
1564762436062.5,-25.32,0,0,0,0,0
1564762436078.13,-32.15,0,0,0,0,0
1564762436093.75,-40.37,0,0,0,0,0
1564762436109.38,-50.03,0,0,0,0,0
1564762436125,-61.59,0,0,0,0,0
1564762436140.63,-75.71,0,0,0,0,0
1564762436156.25,-92.92,0,0,0,0,0
1564762436171.88,-113.37,0,0,0,0,0
1564762436187.5,-136.48,0,0,0,0,0
1564762436203.13,-160.75,0,0,0,0,0
1564762436218.75,-183.68,0,0,0,0,0
1564762436234.38,-201.96,0,0,0,0,0
1564762436250,-212.25,0,0,0,0,0
1564762436265.63,-212.11,0,0,0,0,0
1564762436281.25,-200.83,0,0,0,0,0
1564762436296.88,-179.83,0,0,0,0,0
1564762436312.5,-152.19,0,0,0,0,0
1564762436328.13,-121.64,0,0,0,0,0
1564762436343.75,-91.51,0,0,0,0,0
1564762436359.38,-64.02,0,0,0,0,0
1564762436375,-40.35,0,0,0,0,0
1564762436390.63,-21.15,0,0,0,0,0
1564762436406.25,-7.03,0,0,0,0,0
1564762436421.88,1.24,0,0,0,0,0
1564762436437.5,3.08,0,0,0,0,0
1564762436453.13,-1.41,0,0,0,0,0
1564762436468.75,-11.01,0,0,0,0,0
1564762436484.38,-23.49,0,0,0,0,0
1564762436500,-36.08,0,0,0,0,0
1564762436515.63,-46.25,0,0,0,0,0
1564762436531.25,-52.38,0,0,0,0,0
1564762436546.88,-54.12,0,0,0,0,0
1564762436562.5,-52.36,0,0,0,0,0
1564762436578.13,-48.71,0,0,0,0,0
1564762436593.75,-44.86,0,0,0,0,0
1564762436609.38,-41.99,0,0,0,0,0
1564762436625,-40.5,0,0,0,0,0
1564762436640.63,-40.12,0,0,0,0,0
1564762436656.25,-40.3,0,0,0,0,0
1564762436671.88,-40.66,0,0,0,0,0
1564762436687.5,-41.28,0,0,0,0,0
1564762436703.13,-42.74,0,0,0,0,0
1564762436718.75,-45.88,0,0,0,0,0
1564762436734.38,-51.53,0,0,0,0,0
1564762436750,-60.26,0,0,0,0,0
1564762436765.63,-72.16,0,0,0,0,0
1564762436781.25,-86.57,0,0,0,0,0
1564762436796.88,-101.92,0,0,0,0,0
1564762436812.5,-115.57,0,0,0,0,0
1564762436828.13,-124.14,0,0,0,0,0
1564762436843.75,-124.24,0,0,0,0,0
1564762436859.38,-113.54,0,0,0,0,0
1564762436875,-91.77,0,0,0,0,0
1564762436890.63,-60.9,0,0,0,0,0
1564762436906.25,-24.76,0,0,0,0,0
1564762436921.88,12.24,0,0,0,0,0
1564762436937.5,46.32,0,0,0,0,0
1564762436953.13,75.02,0,0,0,0,0
1564762436968.75,97.36,0,0,0,0,0
1564762436984.38,113.13,0,0,0,0,0
1564762437000,122.32,0,0,0,0,0
1564762437015.63,124.78,0,0,0,0,0
1564762437031.25,120.47,0,0,0,0,0
1564762437046.88,109.92,0,0,0,0,0
1564762437062.5,94.66,0,0,0,0,0
1564762437078.13,77.21,0,0,0,0,0
1564762437093.75,60.47,0,0,0,0,0
1564762437109.38,47.01,0,0,0,0,0
1564762437125,38.3,0,0,0,0,0
1564762437140.63,34.34,0,0,0,0,0
1564762437156.25,33.92,0,0,0,0,0
1564762437171.88,35.19,0,0,0,0,0
1564762437187.5,36.4,0,0,0,0,0
1564762437203.13,36.5,0,0,0,0,0
1564762437218.75,35.25,0,0,0,0,0
1564762437234.38,32.99,0,0,0,0,0
1564762437250,30.18,0,0,0,0,0
1564762437265.63,27,0,0,0,0,0
1564762437281.25,23.27,0,0,0,0,0
1564762437296.88,18.56,0,0,0,0,0
1564762437312.5,12.35,0,0,0,0,0
1564762437328.13,4.22,0,0,0,0,0
1564762437343.75,-6.12,0,0,0,0,0
1564762437359.38,-18.72,0,0,0,0,0
1564762437375,-33.08,0,0,0,0,0
1564762437390.63,-47.7,0,0,0,0,0
1564762437406.25,-60,0,0,0,0,0
1564762437421.88,-66.63,0,0,0,0,0
1564762437437.5,-64.52,0,0,0,0,0
1564762437453.13,-51.99,0,0,0,0,0
1564762437468.75,-29.62,0,0,0,0,0
1564762437484.38,-0.2,0,0,0,0,0
1564762437500,32.14,0,0,0,0,0
1564762437515.63,63.31,0,0,0,0,0
1564762437531.25,90.32,0,0,0,0,0
1564762437546.88,111.63,0,0,0,0,0
1564762437562.5,126.75,0,0,0,0,0
1564762437578.13,135.6,0,0,0,0,0
1564762437593.75,137.93,0,0,0,0,0
1564762437609.38,133.39,0,0,0,0,0
1564762437625,122.01,0,0,0,0,0
1564762437640.63,104.73,0,0,0,0,0
1564762437656.25,83.71,0,0,0,0,0
1564762437671.88,61.87,0,0,0,0,0
1564762437687.5,42.25,0,0,0,0,0
1564762437703.13,27.11,0,0,0,0,0
1564762437718.75,17.39,0,0,0,0,0
1564762437734.38,12.52,0,0,0,0,0
1564762437750,11.06,0,0,0,0,0
1564762437765.63,11.25,0,0,0,0,0
1564762437781.25,11.69,0,0,0,0,0
1564762437796.88,11.71,0,0,0,0,0
1564762437812.5,11.18,0,0,0,0,0
1564762437828.13,10.22,0,0,0,0,0
1564762437843.75,8.8,0,0,0,0,0
1564762437859.38,6.51,0,0,0,0,0
1564762437875,2.68,0,0,0,0,0
1564762437890.63,-3.47,0,0,0,0,0
1564762437906.25,-12.5,0,0,0,0,0
1564762437921.88,-24.61,0,0,0,0,0
1564762437937.5,-39.54,0,0,0,0,0
1564762437953.13,-56.44,0,0,0,0,0
1564762437968.75,-73.75,0,0,0,0,0
1564762437984.38,-89.07,0,0,0,0,0
1564762438000,-99.45,0,0,0,0,0
1564762438015.63,-101.95,0,0,0,0,0
1564762438031.25,-94.45,0,0,0,0,0
1564762438046.88,-76.47,0,0,0,0,0
1564762438062.5,-49.53,0,0,0,0,0
1564762438078.13,-16.79,0,0,0,0,0
1564762438093.75,17.71,0,0,0,0,0
1564762438109.38,50.22,0,0,0,0,0
1564762438125,78,0,0,0,0,0
1564762438140.63,99.58,0,0,0,0,0
1564762438156.25,114.42,0,0,0,0,0
1564762438171.88,122.4,0,0,0,0,0
1564762438187.5,123.44,0,0,0,0,0
1564762438203.13,117.57,0,0,0,0,0
1564762438218.75,105.35,0,0,0,0,0
1564762438234.38,88.33,0,0,0,0,0
1564762438250,69.02,0,0,0,0,0
1564762438265.63,50.56,0,0,0,0,0
1564762438281.25,35.68,0,0,0,0,0
1564762438296.88,26.01,0,0,0,0,0
1564762438312.5,21.44,0,0,0,0,0
1564762438328.13,20.46,0,0,0,0,0
1564762438343.75,20.86,0,0,0,0,0
1564762438359.38,20.72,0,0,0,0,0
1564762438375,19.05,0,0,0,0,0
1564762438390.63,15.87,0,0,0,0,0
1564762438406.25,11.78,0,0,0,0,0
1564762438421.88,7.32,0,0,0,0,0
1564762438437.5,2.56,0,0,0,0,0
1564762438453.13,-3.03,0,0,0,0,0
1564762438468.75,-10.23,0,0,0,0,0
1564762438484.38,-19.83,0,0,0,0,0
1564762438500,-32.32,0,0,0,0,0
1564762438515.63,-47.82,0,0,0,0,0
1564762438531.25,-65.99,0,0,0,0,0
1564762438546.88,-85.78,0,0,0,0,0
1564762438562.5,-105.13,0,0,0,0,0
1564762438578.13,-121.01,0,0,0,0,0
1564762438593.75,-129.87,0,0,0,0,0
1564762438609.38,-128.62,0,0,0,0,0
1564762438625,-115.72,0,0,0,0,0
1564762438640.63,-91.87,0,0,0,0,0
1564762438656.25,-59.97,0,0,0,0,0
1564762438671.88,-24.11,0,0,0,0,0
1564762438687.5,11.7,0,0,0,0,0
1564762438703.13,44.55,0,0,0,0,0
1564762438718.75,72.96,0,0,0,0,0
1564762438734.38,96.47,0,0,0,0,0
1564762438750,114.87,0,0,0,0,0
1564762438765.63,127.66,0,0,0,0,0
1564762438781.25,134.07,0,0,0,0,0
1564762438796.88,133.62,0,0,0,0,0
1564762438812.5,126.76,0,0,0,0,0
1564762438828.13,115.21,0,0,0,0,0
1564762438843.75,101.63,0,0,0,0,0
1564762438859.38,88.93,0,0,0,0,0
1564762438875,79.21,0,0,0,0,0
1564762438890.63,73.2,0,0,0,0,0
1564762438906.25,70.22,0,0,0,0,0
1564762438921.88,68.78,0,0,0,0,0
1564762438937.5,67.42,0,0,0,0,0
1564762438953.13,65.33,0,0,0,0,0
1564762438968.75,62.61,0,0,0,0,0
1564762438984.38,59.94,0,0,0,0,0
1564762439000,57.89,0,0,0,0,0
1564762439015.63,56.35,0,0,0,0,0
1564762439031.25,54.23,0,0,0,0,0
1564762439046.88,49.82,0,0,0,0,0
1564762439062.5,41.33,0,0,0,0,0
1564762439078.13,27.63,0,0,0,0,0
1564762439093.75,8.81,0,0,0,0,0
1564762439109.38,-13.7,0,0,0,0,0
1564762439125,-37.26,0,0,0,0,0
1564762439140.63,-58.53,0,0,0,0,0
1564762439156.25,-74.17,0,0,0,0,0
1564762439171.88,-81.57,0,0,0,0,0
1564762439187.5,-79.47,0,0,0,0,0
1564762439203.13,-68.26,0,0,0,0,0
1564762439218.75,-49.73,0,0,0,0,0
1564762439234.38,-26.61,0,0,0,0,0
1564762439250,-1.82,0,0,0,0,0
1564762439265.63,22.18,0,0,0,0,0
1564762439281.25,43.62,0,0,0,0,0
1564762439296.88,61.34,0,0,0,0,0
1564762439312.5,74.51,0,0,0,0,0
1564762439328.13,82.42,0,0,0,0,0
1564762439343.75,84.49,0,0,0,0,0
1564762439359.38,80.56,0,0,0,0,0
1564762439375,71.22,0,0,0,0,0
1564762439390.63,57.89,0,0,0,0,0
1564762439406.25,42.6,0,0,0,0,0
1564762439421.88,27.54,0,0,0,0,0
1564762439437.5,14.49,0,0,0,0,0
1564762439453.13,4.41,0,0,0,0,0
1564762439468.75,-2.62,0,0,0,0,0
1564762439484.38,-7.17,0,0,0,0,0
1564762439500,-10.11,0,0,0,0,0
1564762439515.63,-12.1,0,0,0,0,0
1564762439531.25,-13.46,0,0,0,0,0
1564762439546.88,-14.18,0,0,0,0,0
1564762439562.5,-14.12,0,0,0,0,0
1564762439578.13,-13.36,0,0,0,0,0
1564762439593.75,-12.47,0,0,0,0,0
1564762439609.38,-12.44,0,0,0,0,0
1564762439625,-14.54,0,0,0,0,0
1564762439640.63,-19.97,0,0,0,0,0
1564762439656.25,-29.28,0,0,0,0,0
1564762439671.88,-42.09,0,0,0,0,0
1564762439687.5,-56.78,0,0,0,0,0
1564762439703.13,-70.7,0,0,0,0,0
1564762439718.75,-80.65,0,0,0,0,0
1564762439734.38,-83.79,0,0,0,0,0
1564762439750,-78.38,0,0,0,0,0
1564762439765.63,-64.37,0,0,0,0,0
1564762439781.25,-43.3,0,0,0,0,0
1564762439796.88,-17.69,0,0,0,0,0
1564762439812.5,9.62,0,0,0,0,0
1564762439828.13,36.19,0,0,0,0,0
1564762439843.75,60.16,0,0,0,0,0
1564762439859.38,80.18,0,0,0,0,0
1564762439875,95.13,0,0,0,0,0
1564762439890.63,104.11,0,0,0,0,0
1564762439906.25,106.51,0,0,0,0,0
1564762439921.88,102.41,0,0,0,0,0
1564762439937.5,92.75,0,0,0,0,0
1564762439953.13,79.3,0,0,0,0,0
1564762439968.75,64.18,0,0,0,0,0
1564762439984.38,49.43,0,0,0,0,0
1564762440000,36.47,0,0,0,0,0
1564762440015.63,25.97,0,0,0,0,0
1564762440031.25,17.96,0,0,0,0,0
1564762440046.88,12.01,0,0,0,0,0
1564762440062.5,7.58,0,0,0,0,0
1564762440078.13,4.16,0,0,0,0,0
1564762440093.75,1.42,0,0,0,0,0
1564762440109.38,-0.86,0,0,0,0,0
1564762440125,-2.93,0,0,0,0,0
1564762440140.63,-5.15,0,0,0,0,0
1564762440156.25,-8.09,0,0,0,0,0
1564762440171.88,-12.5,0,0,0,0,0
1564762440187.5,-19.23,0,0,0,0,0
1564762440203.13,-28.99,0,0,0,0,0
1564762440218.75,-41.97,0,0,0,0,0
1564762440234.38,-57.49,0,0,0,0,0
1564762440250,-73.7,0,0,0,0,0
1564762440265.63,-87.71,0,0,0,0,0
1564762440281.25,-96.17,0,0,0,0,0
1564762440296.88,-96.24,0,0,0,0,0
1564762440312.5,-86.58,0,0,0,0,0
1564762440328.13,-67.86,0,0,0,0,0
1564762440343.75,-42.66,0,0,0,0,0
1564762440359.38,-14.62,0,0,0,0,0
1564762440375,12.72,0,0,0,0,0
1564762440390.63,36.75,0,0,0,0,0
1564762440406.25,56.07,0,0,0,0,0
1564762440421.88,70.16,0,0,0,0,0
1564762440437.5,78.81,0,0,0,0,0
1564762440453.13,81.68,0,0,0,0,0
1564762440468.75,78.41,0,0,0,0,0
1564762440484.38,69.01,0,0,0,0,0
1564762440500,54.36,0,0,0,0,0
1564762440515.63,36.35,0,0,0,0,0
1564762440531.25,17.53,0,0,0,0,0
1564762440546.88,0.38,0,0,0,0,0
1564762440562.5,-13.31,0,0,0,0,0
1564762440578.13,-22.92,0,0,0,0,0
1564762440593.75,-28.89,0,0,0,0,0
1564762440609.38,-32.26,0,0,0,0,0
1564762440625,-34.04,0,0,0,0,0
1564762440640.63,-34.81,0,0,0,0,0
1564762440656.25,-34.77,0,0,0,0,0
1564762440671.88,-33.92,0,0,0,0,0
1564762440687.5,-32.48,0,0,0,0,0
1564762440703.13,-31.15,0,0,0,0,0
1564762440718.75,-31.03,0,0,0,0,0
1564762440734.38,-33.38,0,0,0,0,0
1564762440750,-39.16,0,0,0,0,0
1564762440765.63,-48.75,0,0,0,0,0
1564762440781.25,-61.61,0,0,0,0,0
1564762440796.88,-76.16,0,0,0,0,0
1564762440812.5,-89.97,0,0,0,0,0
1564762440828.13,-100.1,0,0,0,0,0
1564762440843.75,-103.77,0,0,0,0,0
1564762440859.38,-99.16,0,0,0,0,0
1564762440875,-86.02,0,0,0,0,0
1564762440890.63,-65.75,0,0,0,0,0
1564762440906.25,-41.1,0,0,0,0,0
1564762440921.88,-15.21,0,0,0,0,0
1564762440937.5,9.13,0,0,0,0,0
1564762440953.13,30.03,0,0,0,0,0
1564762440968.75,46.4,0,0,0,0,0
1564762440984.38,57.68,0,0,0,0,0
1564762441000,63.42,0,0,0,0,0
1564762441015.63,63.29,0,0,0,0,0
1564762441031.25,57.39,0,0,0,0,0
1564762441046.88,46.56,0,0,0,0,0
1564762441062.5,32.51,0,0,0,0,0
1564762441078.13,17.5,0,0,0,0,0
1564762441093.75,3.65,0,0,0,0,0
1564762441109.38,-7.64,0,0,0,0,0
1564762441125,-15.95,0,0,0,0,0
1564762441140.63,-21.74,0,0,0,0,0
1564762441156.25,-25.84,0,0,0,0,0
1564762441171.88,-28.94,0,0,0,0,0
1564762441187.5,-31.37,0,0,0,0,0
1564762441203.13,-33.14,0,0,0,0,0
1564762441218.75,-34.2,0,0,0,0,0
1564762441234.38,-34.73,0,0,0,0,0
1564762441250,-35.3,0,0,0,0,0
1564762441265.63,-36.74,0,0,0,0,0
1564762441281.25,-39.93,0,0,0,0,0
1564762441296.88,-45.63,0,0,0,0,0
1564762441312.5,-54.21,0,0,0,0,0
1564762441328.13,-65.59,0,0,0,0,0
1564762441343.75,-79.06,0,0,0,0,0
1564762441359.38,-93.23,0,0,0,0,0
1564762441375,-106.1,0,0,0,0,0
1564762441390.63,-115.32,0,0,0,0,0
1564762441406.25,-118.66,0,0,0,0,0
1564762441421.88,-114.57,0,0,0,0,0
1564762441437.5,-102.62,0,0,0,0,0
1564762441453.13,-83.75,0,0,0,0,0
1564762441468.75,-59.99,0,0,0,0,0
1564762441484.38,-33.97,0,0,0,0,0
1564762441500,-8.41,0,0,0,0,0
1564762441515.63,14.35,0,0,0,0,0
1564762441531.25,32.56,0,0,0,0,0
1564762441546.88,45.05,0,0,0,0,0
1564762441562.5,51.26,0,0,0,0,0
1564762441578.13,51.3,0,0,0,0,0
1564762441593.75,46.03,0,0,0,0,0
1564762441609.38,37.1,0,0,0,0,0
1564762441625,26.62,0,0,0,0,0
1564762441640.63,16.67,0,0,0,0,0
1564762441656.25,8.68,0,0,0,0,0
1564762441671.88,3.09,0,0,0,0,0
1564762441687.5,-0.58,0,0,0,0,0
1564762441703.13,-3.26,0,0,0,0,0
1564762441718.75,-5.71,0,0,0,0,0
1564762441734.38,-8.04,0,0,0,0,0
1564762441750,-9.71,0,0,0,0,0
1564762441765.63,-9.95,0,0,0,0,0
1564762441781.25,-8.31,0,0,0,0,0
1564762441796.88,-5.17,0,0,0,0,0
1564762441812.5,-1.7,0,0,0,0,0
1564762441828.13,0.36,0,0,0,0,0
1564762441843.75,-0.78,0,0,0,0,0
1564762441859.38,-6.49,0,0,0,0,0
1564762441875,-17.22,0,0,0,0,0
1564762441890.63,-32.09,0,0,0,0,0
1564762441906.25,-48.74,0,0,0,0,0
1564762441921.88,-63.58,0,0,0,0,0
1564762441937.5,-72.51,0,0,0,0,0
1564762441953.13,-72.11,0,0,0,0,0
1564762441968.75,-60.73,0,0,0,0,0
1564762441984.38,-39.15,0,0,0,0,0
1564762442000,-10.31,0,0,0,0,0
1564762442015.63,21.73,0,0,0,0,0
1564762442031.25,52.98,0,0,0,0,0
1564762442046.88,80.44,0,0,0,0,0
1564762442062.5,102.4,0,0,0,0,0
1564762442078.13,117.95,0,0,0,0,0
1564762442093.75,126.54,0,0,0,0,0
1564762442109.38,127.73,0,0,0,0,0
1564762442125,121.51,0,0,0,0,0
1564762442140.63,108.73,0,0,0,0,0
1564762442156.25,91.43,0,0,0,0,0
1564762442171.88,72.61,0,0,0,0,0
1564762442187.5,55.48,0,0,0,0,0
1564762442203.13,42.67,0,0,0,0,0
1564762442218.75,35.4,0,0,0,0,0
1564762442234.38,33.38,0,0,0,0,0
1564762442250,35.11,0,0,0,0,0
1564762442265.63,38.58,0,0,0,0,0
1564762442281.25,41.92,0,0,0,0,0
1564762442296.88,43.78,0,0,0,0,0
1564762442312.5,43.39,0,0,0,0,0
1564762442328.13,40.41,0,0,0,0,0
1564762442343.75,34.76,0,0,0,0,0
1564762442359.38,26.49,0,0,0,0,0
1564762442375,15.78,0,0,0,0,0
1564762442390.63,2.94,0,0,0,0,0
1564762442406.25,-11.53,0,0,0,0,0
1564762442421.88,-26.9,0,0,0,0,0
1564762442437.5,-42.16,0,0,0,0,0
1564762442453.13,-55.79,0,0,0,0,0
1564762442468.75,-65.98,0,0,0,0,0
1564762442484.38,-70.83,0,0,0,0,0
1564762442500,-68.89,0,0,0,0,0
1564762442515.63,-59.7,0,0,0,0,0
1564762442531.25,-43.97,0,0,0,0,0
1564762442546.88,-23.48,0,0,0,0,0
1564762442562.5,-0.53,0,0,0,0,0
1564762442578.13,22.52,0,0,0,0,0
1564762442593.75,43.74,0,0,0,0,0
1564762442609.38,61.69,0,0,0,0,0
1564762442625,75.36,0,0,0,0,0
1564762442640.63,83.99,0,0,0,0,0
1564762442656.25,87.08,0,0,0,0,0
1564762442671.88,84.42,0,0,0,0,0
1564762442687.5,76.19,0,0,0,0,0
1564762442703.13,63.2,0,0,0,0,0
1564762442718.75,46.86,0,0,0,0,0
1564762442734.38,29.08,0,0,0,0,0
1564762442750,12.09,0,0,0,0,0
1564762442765.63,-2,0,0,0,0,0
1564762442781.25,-11.71,0,0,0,0,0
1564762442796.88,-16.42,0,0,0,0,0
1564762442812.5,-16.53,0,0,0,0,0
1564762442828.13,-13.16,0,0,0,0,0
1564762442843.75,-7.8,0,0,0,0,0
1564762442859.38,-1.94,0,0,0,0,0
1564762442875,3.12,0,0,0,0,0
1564762442890.63,6.21,0,0,0,0,0
1564762442906.25,6.29,0,0,0,0,0
1564762442921.88,2.41,0,0,0,0,0
1564762442937.5,-5.97,0,0,0,0,0
1564762442953.13,-18.6,0,0,0,0,0
1564762442968.75,-34.04,0,0,0,0,0
1564762442984.38,-49.65,0,0,0,0,0
1564762443000,-62,0,0,0,0,0
1564762443015.63,-67.76,0,0,0,0,0
1564762443031.25,-64.65,0,0,0,0,0
1564762443046.88,-52.18,0,0,0,0,0
1564762443062.5,-31.89,0,0,0,0,0
1564762443078.13,-6.76,0,0,0,0,0
1564762443093.75,19.73,0,0,0,0,0
1564762443109.38,44.58,0,0,0,0,0
1564762443125,65.95,0,0,0,0,0
1564762443140.63,83.13,0,0,0,0,0
1564762443156.25,96.07,0,0,0,0,0
1564762443171.88,104.82,0,0,0,0,0
1564762443187.5,109.21,0,0,0,0,0
1564762443203.13,109.09,0,0,0,0,0
1564762443218.75,104.69,0,0,0,0,0
1564762443234.38,97.05,0,0,0,0,0
1564762443250,87.9,0,0,0,0,0
1564762443265.63,79.29,0,0,0,0,0
1564762443281.25,72.81,0,0,0,0,0
1564762443296.88,69.16,0,0,0,0,0
1564762443312.5,68.07,0,0,0,0,0
1564762443328.13,68.71,0,0,0,0,0
1564762443343.75,70.3,0,0,0,0,0
1564762443359.38,72.45,0,0,0,0,0
1564762443375,75.3,0,0,0,0,0
1564762443390.63,79.16,0,0,0,0,0
1564762443406.25,84.14,0,0,0,0,0
1564762443421.88,89.83,0,0,0,0,0
1564762443437.5,95.3,0,0,0,0,0
1564762443453.13,99.33,0,0,0,0,0
1564762443468.75,100.82,0,0,0,0,0
1564762443484.38,99.06,0,0,0,0,0
1564762443500,94.08,0,0,0,0,0
1564762443515.63,86.81,0,0,0,0,0
1564762443531.25,79,0,0,0,0,0
1564762443546.88,73.01,0,0,0,0,0
1564762443562.5,71.23,0,0,0,0,0
1564762443578.13,75.33,0,0,0,0,0
1564762443593.75,85.67,0,0,0,0,0
1564762443609.38,101.01,0,0,0,0,0
1564762443625,118.7,0,0,0,0,0
1564762443640.63,135.37,0,0,0,0,0
1564762443656.25,147.68,0,0,0,0,0
1564762443671.88,153,0,0,0,0,0
1564762443687.5,149.82,0,0,0,0,0
1564762443703.13,137.75,0,0,0,0,0
1564762443718.75,117.38,0,0,0,0,0
1564762443734.38,90.18,0,0,0,0,0
1564762443750,58.27,0,0,0,0,0
1564762443765.63,24.26,0,0,0,0,0
1564762443781.25,-8.99,0,0,0,0,0
1564762443796.88,-38.79,0,0,0,0,0
1564762443812.5,-63.07,0,0,0,0,0
1564762443828.13,-80.69,0,0,0,0,0
1564762443843.75,-91.63,0,0,0,0,0
1564762443859.38,-96.82,0,0,0,0,0
1564762443875,-97.81,0,0,0,0,0
1564762443890.63,-96.35,0,0,0,0,0
1564762443906.25,-93.8,0,0,0,0,0
1564762443921.88,-90.97,0,0,0,0,0
1564762443937.5,-88.08,0,0,0,0,0
1564762443953.13,-85.04,0,0,0,0,0
1564762443968.75,-81.86,0,0,0,0,0
1564762443984.38,-79.02,0,0,0,0,0
1564762444000,-77.58,0,0,0,0,0
1564762444015.63,-78.87,0,0,0,0,0
1564762444031.25,-83.89,0,0,0,0,0
1564762444046.88,-92.55,0,0,0,0,0
1564762444062.5,-103.23,0,0,0,0,0
1564762444078.13,-112.98,0,0,0,0,0
1564762444093.75,-118.22,0,0,0,0,0
1564762444109.38,-116,0,0,0,0,0
1564762444125,-105.08,0,0,0,0,0
1564762444140.63,-86.34,0,0,0,0,0
1564762444156.25,-62.53,0,0,0,0,0
1564762444171.88,-37.22,0,0,0,0,0
1564762444187.5,-13.77,0,0,0,0,0
1564762444203.13,5.56,0,0,0,0,0
1564762444218.75,19.74,0,0,0,0,0
1564762444234.38,28.68,0,0,0,0,0
1564762444250,32.67,0,0,0,0,0
1564762444265.63,32.12,0,0,0,0,0
1564762444281.25,27.53,0,0,0,0,0
1564762444296.88,19.64,0,0,0,0,0
1564762444312.5,9.65,0,0,0,0,0
1564762444328.13,-0.98,0,0,0,0,0
1564762444343.75,-10.78,0,0,0,0,0
1564762444359.38,-18.74,0,0,0,0,0
1564762444375,-24.5,0,0,0,0,0
1564762444390.63,-28.33,0,0,0,0,0
1564762444406.25,-30.96,0,0,0,0,0
1564762444421.88,-33.27,0,0,0,0,0
1564762444437.5,-35.94,0,0,0,0,0
1564762444453.13,-39.38,0,0,0,0,0
1564762444468.75,-43.69,0,0,0,0,0
1564762444484.38,-48.8,0,0,0,0,0
1564762444500,-54.65,0,0,0,0,0
1564762444515.63,-61.36,0,0,0,0,0
1564762444531.25,-69.19,0,0,0,0,0
1564762444546.88,-78.4,0,0,0,0,0
1564762444562.5,-88.8,0,0,0,0,0
1564762444578.13,-99.36,0,0,0,0,0
1564762444593.75,-108.14,0,0,0,0,0
1564762444609.38,-112.65,0,0,0,0,0
1564762444625,-110.63,0,0,0,0,0
1564762444640.63,-100.97,0,0,0,0,0
1564762444656.25,-84.14,0,0,0,0,0
1564762444671.88,-62.13,0,0,0,0,0
1564762444687.5,-37.8,0,0,0,0,0
1564762444703.13,-13.96,0,0,0,0,0
1564762444718.75,7.25,0,0,0,0,0
1564762444734.38,24.6,0,0,0,0,0
1564762444750,37.46,0,0,0,0,0
1564762444765.63,45.56,0,0,0,0,0
1564762444781.25,48.72,0,0,0,0,0
1564762444796.88,47,0,0,0,0,0
1564762444812.5,40.95,0,0,0,0,0
1564762444828.13,31.79,0,0,0,0,0
1564762444843.75,21.29,0,0,0,0,0
1564762444859.38,11.38,0,0,0,0,0
1564762444875,3.63,0,0,0,0,0
1564762444890.63,-1.09,0,0,0,0,0
1564762444906.25,-2.68,0,0,0,0,0
1564762444921.88,-1.64,0,0,0,0,0
1564762444937.5,1.23,0,0,0,0,0
1564762444953.13,5.18,0,0,0,0,0
1564762444968.75,9.6,0,0,0,0,0
1564762444984.38,14.01,0,0,0,0,0
1564762445000,17.93,0,0,0,0,0
1564762445015.63,20.72,0,0,0,0,0
1564762445031.25,21.5,0,0,0,0,0
1564762445046.88,19.38,0,0,0,0,0
1564762445062.5,13.59,0,0,0,0,0
1564762445078.13,4.02,0,0,0,0,0
1564762445093.75,-8.46,0,0,0,0,0
1564762445109.38,-22,0,0,0,0,0
1564762445125,-34,0,0,0,0,0
1564762445140.63,-41.86,0,0,0,0,0
1564762445156.25,-43.59,0,0,0,0,0
1564762445171.88,-38.46,0,0,0,0,0
1564762445187.5,-27.05,0,0,0,0,0
1564762445203.13,-10.94,0,0,0,0,0
1564762445218.75,7.78,0,0,0,0,0
1564762445234.38,27.1,0,0,0,0,0
1564762445250,45.28,0,0,0,0,0
1564762445265.63,60.85,0,0,0,0,0
1564762445281.25,72.42,0,0,0,0,0
1564762445296.88,78.74,0,0,0,0,0
1564762445312.5,78.92,0,0,0,0,0
1564762445328.13,72.83,0,0,0,0,0
1564762445343.75,61.4,0,0,0,0,0
1564762445359.38,46.61,0,0,0,0,0
1564762445375,31.04,0,0,0,0,0
1564762445390.63,17.13,0,0,0,0,0
1564762445406.25,6.46,0,0,0,0,0
1564762445421.88,-0.61,0,0,0,0,0
1564762445437.5,-4.77,0,0,0,0,0
1564762445453.13,-7.32,0,0,0,0,0
1564762445468.75,-9.42,0,0,0,0,0
1564762445484.38,-11.75,0,0,0,0,0
1564762445500,-14.44,0,0,0,0,0
1564762445515.63,-17.34,0,0,0,0,0
1564762445531.25,-20.47,0,0,0,0,0
1564762445546.88,-24.23,0,0,0,0,0
1564762445562.5,-29.39,0,0,0,0,0
1564762445578.13,-36.77,0,0,0,0,0
1564762445593.75,-46.82,0,0,0,0,0
1564762445609.38,-59.13,0,0,0,0,0
1564762445625,-72.24,0,0,0,0,0
1564762445640.63,-83.76,0,0,0,0,0
1564762445656.25,-90.94,0,0,0,0,0
1564762445671.88,-91.37,0,0,0,0,0
1564762445687.5,-83.82,0,0,0,0,0
1564762445703.13,-68.59,0,0,0,0,0
1564762445718.75,-47.57,0,0,0,0,0
1564762445734.38,-23.62,0,0,0,0,0
1564762445750,0.12,0,0,0,0,0
1564762445765.63,21.03,0,0,0,0,0
1564762445781.25,37.31,0,0,0,0,0
1564762445796.88,48.04,0,0,0,0,0
1564762445812.5,52.98,0,0,0,0,0
1564762445828.13,52.39,0,0,0,0,0
1564762445843.75,46.87,0,0,0,0,0
1564762445859.38,37.48,0,0,0,0,0
1564762445875,25.59,0,0,0,0,0
1564762445890.63,12.89,0,0,0,0,0
1564762445906.25,1.03,0,0,0,0,0
1564762445921.88,-8.63,0,0,0,0,0
1564762445937.5,-15.33,0,0,0,0,0
1564762445953.13,-18.98,0,0,0,0,0
1564762445968.75,-20.05,0,0,0,0,0
1564762445984.38,-19.39,0,0,0,0,0
1564762446000,-17.93,0,0,0,0,0
1564762446015.63,-16.43,0,0,0,0,0
1564762446031.25,-15.42,0,0,0,0,0
1564762446046.88,-15.22,0,0,0,0,0
1564762446062.5,-16.18,0,0,0,0,0
1564762446078.13,-18.8,0,0,0,0,0
1564762446093.75,-23.76,0,0,0,0,0
1564762446109.38,-31.79,0,0,0,0,0
1564762446125,-43.13,0,0,0,0,0
1564762446140.63,-57.04,0,0,0,0,0
1564762446156.25,-71.63,0,0,0,0,0
1564762446171.88,-83.94,0,0,0,0,0
1564762446187.5,-90.76,0,0,0,0,0
1564762446203.13,-89.54,0,0,0,0,0
1564762446218.75,-79.37,0,0,0,0,0
1564762446234.38,-61.21,0,0,0,0,0
1564762446250,-37.65,0,0,0,0,0
1564762446265.63,-12.06,0,0,0,0,0
1564762446281.25,12.33,0,0,0,0,0
1564762446296.88,33.03,0,0,0,0,0
1564762446312.5,48.55,0,0,0,0,0
1564762446328.13,58.2,0,0,0,0,0
1564762446343.75,61.87,0,0,0,0,0
1564762446359.38,59.84,0,0,0,0,0
1564762446375,52.84,0,0,0,0,0
1564762446390.63,42.06,0,0,0,0,0
1564762446406.25,29.1,0,0,0,0,0
1564762446421.88,15.76,0,0,0,0,0
1564762446437.5,3.65,0,0,0,0,0
1564762446453.13,-6.16,0,0,0,0,0
1564762446468.75,-13.2,0,0,0,0,0
1564762446484.38,-17.57,0,0,0,0,0
1564762446500,-19.66,0,0,0,0,0
1564762446515.63,-19.96,0,0,0,0,0
1564762446531.25,-18.97,0,0,0,0,0
1564762446546.88,-17.19,0,0,0,0,0
1564762446562.5,-15.18,0,0,0,0,0
1564762446578.13,-13.64,0,0,0,0,0
1564762446593.75,-13.34,0,0,0,0,0
1564762446609.38,-15.11,0,0,0,0,0
1564762446625,-19.75,0,0,0,0,0
1564762446640.63,-27.81,0,0,0,0,0
1564762446656.25,-39.24,0,0,0,0,0
1564762446671.88,-53.06,0,0,0,0,0
1564762446687.5,-67.11,0,0,0,0,0
1564762446703.13,-78.33,0,0,0,0,0
1564762446718.75,-83.48,0,0,0,0,0
1564762446734.38,-80.09,0,0,0,0,0
1564762446750,-67.42,0,0,0,0,0
1564762446765.63,-46.82,0,0,0,0,0
1564762446781.25,-21.26,0,0,0,0,0
1564762446796.88,5.6,0,0,0,0,0
1564762446812.5,30.38,0,0,0,0,0
1564762446828.13,50.78,0,0,0,0,0
1564762446843.75,65.63,0,0,0,0,0
1564762446859.38,74.58,0,0,0,0,0
1564762446875,77.67,0,0,0,0,0
1564762446890.63,75.09,0,0,0,0,0
1564762446906.25,67.31,0,0,0,0,0
1564762446921.88,55.27,0,0,0,0,0
1564762446937.5,40.56,0,0,0,0,0
1564762446953.13,25.2,0,0,0,0,0
1564762446968.75,11.31,0,0,0,0,0
1564762446984.38,0.43,0,0,0,0,0
1564762447000,-6.79,0,0,0,0,0
1564762447015.63,-10.65,0,0,0,0,0
1564762447031.25,-12.13,0,0,0,0,0
1564762447046.88,-12.31,0,0,0,0,0
1564762447062.5,-12.04,0,0,0,0,0
1564762447078.13,-11.73,0,0,0,0,0
1564762447093.75,-11.55,0,0,0,0,0
1564762447109.38,-11.7,0,0,0,0,0
1564762447125,-12.71,0,0,0,0,0
1564762447140.63,-15.45,0,0,0,0,0
1564762447156.25,-20.92,0,0,0,0,0
1564762447171.88,-30.03,0,0,0,0,0
1564762447187.5,-43.07,0,0,0,0,0
1564762447203.13,-59.46,0,0,0,0,0
1564762447218.75,-77.44,0,0,0,0,0
1564762447234.38,-94.24,0,0,0,0,0
1564762447250,-106.44,0,0,0,0,0
1564762447265.63,-110.86,0,0,0,0,0
1564762447281.25,-105.43,0,0,0,0,0
1564762447296.88,-89.92,0,0,0,0,0
1564762447312.5,-66.13,0,0,0,0,0
1564762447328.13,-37.36,0,0,0,0,0
1564762447343.75,-7.4,0,0,0,0,0
1564762447359.38,20.45,0,0,0,0,0
1564762447375,43.96,0,0,0,0,0
1564762447390.63,62.02,0,0,0,0,0
1564762447406.25,74.17,0,0,0,0,0
1564762447421.88,80.19,0,0,0,0,0
1564762447437.5,79.91,0,0,0,0,0
1564762447453.13,73.5,0,0,0,0,0
1564762447468.75,61.81,0,0,0,0,0
1564762447484.38,46.6,0,0,0,0,0
1564762447500,30.5,0,0,0,0,0
1564762447515.63,16.23,0,0,0,0,0
1564762447531.25,5.95,0,0,0,0,0
1564762447546.88,0.45,0,0,0,0,0
1564762447562.5,-0.97,0,0,0,0,0
1564762447578.13,-0.26,0,0,0,0,0
1564762447593.75,0.28,0,0,0,0,0
1564762447609.38,-1.2,0,0,0,0,0
1564762447625,-5.57,0,0,0,0,0
1564762447640.63,-12.56,0,0,0,0,0
1564762447656.25,-21.24,0,0,0,0,0
1564762447671.88,-30.59,0,0,0,0,0
1564762447687.5,-40.07,0,0,0,0,0
1564762447703.13,-49.69,0,0,0,0,0
1564762447718.75,-59.88,0,0,0,0,0
1564762447734.38,-71.1,0,0,0,0,0
1564762447750,-83.66,0,0,0,0,0
1564762447765.63,-97.38,0,0,0,0,0
1564762447781.25,-111.53,0,0,0,0,0
1564762447796.88,-124.6,0,0,0,0,0
1564762447812.5,-134.34,0,0,0,0,0
1564762447828.13,-138.04,0,0,0,0,0
1564762447843.75,-133.13,0,0,0,0,0
1564762447859.38,-118.11,0,0,0,0,0
1564762447875,-93.21,0,0,0,0,0
1564762447890.63,-60.65,0,0,0,0,0
1564762447906.25,-24.14,0,0,0,0,0
1564762447921.88,12.05,0,0,0,0,0
1564762447937.5,44.23,0,0,0,0,0
1564762447953.13,70.08,0,0,0,0,0
1564762447968.75,88.68,0,0,0,0,0
1564762447984.38,100.26,0,0,0,0,0
1564762448000,105.53,0,0,0,0,0
1564762448015.63,105.32,0,0,0,0,0
1564762448031.25,100.35,0,0,0,0,0
1564762448046.88,91.4,0,0,0,0,0
1564762448062.5,79.5,0,0,0,0,0
1564762448078.13,66.05,0,0,0,0,0
1564762448093.75,52.75,0,0,0,0,0
1564762448109.38,41.27,0,0,0,0,0
1564762448125,32.98,0,0,0,0,0
1564762448140.63,28.53,0,0,0,0,0
1564762448156.25,27.79,0,0,0,0,0
1564762448171.88,29.9,0,0,0,0,0
1564762448187.5,33.51,0,0,0,0,0
1564762448203.13,37.16,0,0,0,0,0
1564762448218.75,39.57,0,0,0,0,0
1564762448234.38,39.94,0,0,0,0,0
1564762448250,37.94,0,0,0,0,0
1564762448265.63,33.71,0,0,0,0,0
1564762448281.25,27.64,0,0,0,0,0
1564762448296.88,20.19,0,0,0,0,0
1564762448312.5,11.73,0,0,0,0,0
1564762448328.13,2.54,0,0,0,0,0
1564762448343.75,-7.28,0,0,0,0,0
1564762448359.38,-17.78,0,0,0,0,0
1564762448375,-29.22,0,0,0,0,0
1564762448390.63,-42.05,0,0,0,0,0
1564762448406.25,-56.52,0,0,0,0,0
1564762448421.88,-72.28,0,0,0,0,0
1564762448437.5,-87.81,0,0,0,0,0
1564762448453.13,-100.32,0,0,0,0,0
1564762448468.75,-106.29,0,0,0,0,0
1564762448484.38,-102.46,0,0,0,0,0
1564762448500,-87.12,0,0,0,0,0
1564762448515.63,-60.92,0,0,0,0,0
1564762448531.25,-26.85,0,0,0,0,0
1564762448546.88,10.6,0,0,0,0,0
1564762448562.5,46.79,0,0,0,0,0
1564762448578.13,78.09,0,0,0,0,0
1564762448593.75,102.56,0,0,0,0,0
1564762448609.38,119.67,0,0,0,0,0
1564762448625,129.8,0,0,0,0,0
1564762448640.63,133.57,0,0,0,0,0
1564762448656.25,131.55,0,0,0,0,0
1564762448671.88,124.42,0,0,0,0,0
1564762448687.5,113.31,0,0,0,0,0
1564762448703.13,99.98,0,0,0,0,0
1564762448718.75,86.75,0,0,0,0,0
1564762448734.38,76.03,0,0,0,0,0
1564762448750,69.61,0,0,0,0,0
1564762448765.63,68.22,0,0,0,0,0
1564762448781.25,71.34,0,0,0,0,0
1564762448796.88,77.44,0,0,0,0,0
1564762448812.5,84.5,0,0,0,0,0
1564762448828.13,90.53,0,0,0,0,0
1564762448843.75,93.93,0,0,0,0,0
1564762448859.38,93.66,0,0,0,0,0
1564762448875,89.28,0,0,0,0,0
1564762448890.63,80.79,0,0,0,0,0
1564762448906.25,68.52,0,0,0,0,0
1564762448921.88,52.96,0,0,0,0,0
1564762448937.5,34.74,0,0,0,0,0
1564762448953.13,14.55,0,0,0,0,0
1564762448968.75,-6.69,0,0,0,0,0
1564762448984.38,-27.83,0,0,0,0,0
1564762449000,-47.48,0,0,0,0,0
1564762449015.63,-64.24,0,0,0,0,0
1564762449031.25,-77.06,0,0,0,0,0
1564762449046.88,-85.5,0,0,0,0,0
1564762449062.5,-89.95,0,0,0,0,0
1564762449078.13,-91.54,0,0,0,0,0
1564762449093.75,-91.83,0,0,0,0,0
1564762449109.38,-92.4,0,0,0,0,0
1564762449125,-94.65,0,0,0,0,0
1564762449140.63,-99.47,0,0,0,0,0
1564762449156.25,-106.95,0,0,0,0,0
1564762449171.88,-116.09,0,0,0,0,0
1564762449187.5,-124.7,0,0,0,0,0
1564762449203.13,-129.65,0,0,0,0,0
1564762449218.75,-127.61,0,0,0,0,0
1564762449234.38,-116.12,0,0,0,0,0
1564762449250,-94.45,0,0,0,0,0
1564762449265.63,-63.94,0,0,0,0,0
1564762449281.25,-27.65,0,0,0,0,0
1564762449296.88,10.64,0,0,0,0,0
1564762449312.5,47.42,0,0,0,0,0
1564762449328.13,80.2,0,0,0,0,0
1564762449343.75,107.58,0,0,0,0,0
1564762449359.38,129.06,0,0,0,0,0
1564762449375,144.61,0,0,0,0,0
1564762449390.63,154.41,0,0,0,0,0
1564762449406.25,158.91,0,0,0,0,0
1564762449421.88,158.91,0,0,0,0,0
1564762449437.5,155.71,0,0,0,0,0
1564762449453.13,151.03,0,0,0,0,0
1564762449468.75,146.7,0,0,0,0,0
1564762449484.38,144.36,0,0,0,0,0
1564762449500,145.05,0,0,0,0,0
1564762449515.63,148.98,0,0,0,0,0
1564762449531.25,155.64,0,0,0,0,0
1564762449546.88,164.01,0,0,0,0,0
1564762449562.5,172.89,0,0,0,0,0
1564762449578.13,181.12,0,0,0,0,0
1564762449593.75,187.51,0,0,0,0,0
1564762449609.38,190.72,0,0,0,0,0
1564762449625,189.19,0,0,0,0,0
1564762449640.63,181.3,0,0,0,0,0
1564762449656.25,165.87,0,0,0,0,0
1564762449671.88,142.81,0,0,0,0,0
1564762449687.5,113.36,0,0,0,0,0
1564762449703.13,80,0,0,0,0,0
1564762449718.75,45.68,0,0,0,0,0
1564762449734.38,12.93,0,0,0,0,0
1564762449750,-17.02,0,0,0,0,0
1564762449765.63,-44.39,0,0,0,0,0
1564762449781.25,-70.61,0,0,0,0,0
1564762449796.88,-97.39,0,0,0,0,0
1564762449812.5,-125.88,0,0,0,0,0
1564762449828.13,-155.98,0,0,0,0,0
1564762449843.75,-186.28,0,0,0,0,0
1564762449859.38,-214.28,0,0,0,0,0
1564762449875,-237.2,0,0,0,0,0
1564762449890.63,-252.66,0,0,0,0,0
1564762449906.25,-259.27,0,0,0,0,0
1564762449921.88,-256.85,0,0,0,0,0
1564762449937.5,-246.29,0,0,0,0,0
1564762449953.13,-229.23,0,0,0,0,0
1564762449968.75,-207.63,0,0,0,0,0
1564762449984.38,-183.48,0,0,0,0,0
1564762450000,-158.53,0,0,0,0,0
1564762450015.63,-134.24,0,0,0,0,0
1564762450031.25,-111.71,0,0,0,0,0
1564762450046.88,-91.81,0,0,0,0,0
1564762450062.5,-75.19,0,0,0,0,0
1564762450078.13,-62.35,0,0,0,0,0
1564762450093.75,-53.53,0,0,0,0,0
1564762450109.38,-48.64,0,0,0,0,0
1564762450125,-46.96,0,0,0,0,0
1564762450140.63,-47.08,0,0,0,0,0
1564762450156.25,-47.08,0,0,0,0,0
1564762450171.88,-44.83,0,0,0,0,0
1564762450187.5,-38.69,0,0,0,0,0
1564762450203.13,-27.98,0,0,0,0,0
1564762450218.75,-13.18,0,0,0,0,0
1564762450234.38,4.24,0,0,0,0,0
1564762450250,22.39,0,0,0,0,0
1564762450265.63,39.51,0,0,0,0,0
1564762450281.25,54.38,0,0,0,0,0
1564762450296.88,66.39,0,0,0,0,0
1564762450312.5,75.38,0,0,0,0,0
1564762450328.13,81.43,0,0,0,0,0
1564762450343.75,84.67,0,0,0,0,0
1564762450359.38,85.36,0,0,0,0,0
1564762450375,83.99,0,0,0,0,0
1564762450390.63,81.37,0,0,0,0,0
1564762450406.25,78.57,0,0,0,0,0
1564762450421.88,76.56,0,0,0,0,0
1564762450437.5,75.98,0,0,0,0,0
1564762450453.13,76.78,0,0,0,0,0
1564762450468.75,78.24,0,0,0,0,0
1564762450484.38,79.12,0,0,0,0,0
1564762450500,78.16,0,0,0,0,0
1564762450515.63,74.54,0,0,0,0,0
1564762450531.25,68.52,0,0,0,0,0
1564762450546.88,61.61,0,0,0,0,0
1564762450562.5,56.58,0,0,0,0,0
1564762450578.13,56.84,0,0,0,0,0
1564762450593.75,65.63,0,0,0,0,0
1564762450609.38,85.06,0,0,0,0,0
1564762450625,115.53,0,0,0,0,0
1564762450640.63,155.53,0,0,0,0,0
1564762450656.25,201.91,0,0,0,0,0
1564762450671.88,250.52,0,0,0,0,0
1564762450687.5,296.85,0,0,0,0,0
1564762450703.13,336.69,0,0,0,0,0
1564762450718.75,366.56,0,0,0,0,0
1564762450734.38,384.12,0,0,0,0,0
1564762450750,388.48,0,0,0,0,0
1564762450765.63,380.39,0,0,0,0,0
1564762450781.25,362.15,0,0,0,0,0
1564762450796.88,337.1,0,0,0,0,0
1564762450812.5,308.9,0,0,0,0,0
1564762450828.13,280.57,0,0,0,0,0
1564762450843.75,253.87,0,0,0,0,0
1564762450859.38,229.09,0,0,0,0,0
1564762450875,205.4,0,0,0,0,0
1564762450890.63,181.58,0,0,0,0,0
1564762450906.25,156.71,0,0,0,0,0
1564762450921.88,130.71,0,0,0,0,0
1564762450937.5,104.35,0,0,0,0,0
1564762450953.13,78.84,0,0,0,0,0
1564762450968.75,55.14,0,0,0,0,0
1564762450984.38,33.41,0,0,0,0,0
1564762451000,12.86,0,0,0,0,0
1564762451015.63,-7.97,0,0,0,0,0
1564762451031.25,-30.47,0,0,0,0,0
1564762451046.88,-55.29,0,0,0,0,0
1564762451062.5,-81.96,0,0,0,0,0
1564762451078.13,-109.1,0,0,0,0,0
1564762451093.75,-134.98,0,0,0,0,0
1564762451109.38,-158.34,0,0,0,0,0
1564762451125,-178.95,0,0,0,0,0
1564762451140.63,-197.71,0,0,0,0,0
1564762451156.25,-216.39,0,0,0,0,0
1564762451171.88,-237.18,0,0,0,0,0
1564762451187.5,-262.26,0,0,0,0,0
1564762451203.13,-293.13,0,0,0,0,0
1564762451218.75,-329.69,0,0,0,0,0
1564762451234.38,-369.27,0,0,0,0,0
1564762451250,-406.39,0,0,0,0,0
1564762451265.63,-433.84,0,0,0,0,0
1564762451281.25,-445.08,0,0,0,0,0
1564762451296.88,-437,0,0,0,0,0
1564762451312.5,-411.59,0,0,0,0,0
1564762451328.13,-375.53,0,0,0,0,0
1564762451343.75,-337.7,0,0,0,0,0
1564762451359.38,-305.8,0,0,0,0,0
1564762451375,-284,0,0,0,0,0
1564762451390.63,-272.6,0,0,0,0,0
1564762451406.25,-269.56,0,0,0,0,0
1564762451421.88,-272.75,0,0,0,0,0
1564762451437.5,-281.29,0,0,0,0,0
1564762451453.13,-295.59,0,0,0,0,0
1564762451468.75,-316.49,0,0,0,0,0
1564762451484.38,-344.25,0,0,0,0,0
1564762451500,-378.03,0,0,0,0,0
1564762451515.63,-415.83,0,0,0,0,0
1564762451531.25,-454.54,0,0,0,0,0
1564762451546.88,-489.93,0,0,0,0,0
1564762451562.5,-517.05,0,0,0,0,0
1564762451578.13,-531.34,0,0,0,0,0
1564762451593.75,-529.93,0,0,0,0,0
1564762451609.38,-512.77,0,0,0,0,0
1564762451625,-482.78,0,0,0,0,0
1564762451640.63,-444.75,0,0,0,0,0
1564762451656.25,-403.56,0,0,0,0,0
1564762451671.88,-362.76,0,0,0,0,0
1564762451687.5,-324.06,0,0,0,0,0
1564762451703.13,-288.02,0,0,0,0,0
1564762451718.75,-254.88,0,0,0,0,0
1564762451734.38,-225.19,0,0,0,0,0
1564762451750,-199.56,0,0,0,0,0
1564762451765.63,-177.96,0,0,0,0,0
1564762451781.25,-159.41,0,0,0,0,0
1564762451796.88,-142.07,0,0,0,0,0
1564762451812.5,-124.13,0,0,0,0,0
1564762451828.13,-104.62,0,0,0,0,0
1564762451843.75,-83.89,0,0,0,0,0
1564762451859.38,-63.4,0,0,0,0,0
1564762451875,-44.97,0,0,0,0,0
1564762451890.63,-29.96,0,0,0,0,0
1564762451906.25,-18.62,0,0,0,0,0
1564762451921.88,-10.18,0,0,0,0,0
1564762451937.5,-3.25,0,0,0,0,0
1564762451953.13,3.58,0,0,0,0,0
1564762451968.75,11.08,0,0,0,0,0
1564762451984.38,19.19,0,0,0,0,0
1564762452000,27.15,0,0,0,0,0
1564762452015.63,33.96,0,0,0,0,0
1564762452031.25,38.85,0,0,0,0,0
1564762452046.88,41.66,0,0,0,0,0
1564762452062.5,42.85,0,0,0,0,0
1564762452078.13,43.23,0,0,0,0,0
1564762452093.75,43.6,0,0,0,0,0
1564762452109.38,44.45,0,0,0,0,0
1564762452125,45.83,0,0,0,0,0
1564762452140.63,47.38,0,0,0,0,0
1564762452156.25,48.64,0,0,0,0,0
1564762452171.88,49.25,0,0,0,0,0
1564762452187.5,49.25,0,0,0,0,0
1564762452203.13,48.94,0,0,0,0,0
1564762452218.75,48.78,0,0,0,0,0
1564762452234.38,49.23,0,0,0,0,0
1564762452250,50.47,0,0,0,0,0
1564762452265.63,52.42,0,0,0,0,0
1564762452281.25,54.77,0,0,0,0,0
1564762452296.88,57.21,0,0,0,0,0
1564762452312.5,59.56,0,0,0,0,0
1564762452328.13,61.93,0,0,0,0,0
1564762452343.75,64.59,0,0,0,0,0
1564762452359.38,67.92,0,0,0,0,0
1564762452375,72.13,0,0,0,0,0
1564762452390.63,77.2,0,0,0,0,0
1564762452406.25,82.88,0,0,0,0,0
1564762452421.88,88.81,0,0,0,0,0
1564762452437.5,94.68,0,0,0,0,0
1564762452453.13,100.46,0,0,0,0,0
1564762452468.75,106.37,0,0,0,0,0
1564762452484.38,112.8,0,0,0,0,0
1564762452500,120.12,0,0,0,0,0
1564762452515.63,128.47,0,0,0,0,0
1564762452531.25,137.67,0,0,0,0,0
1564762452546.88,147.3,0,0,0,0,0
1564762452562.5,156.96,0,0,0,0,0
1564762452578.13,166.38,0,0,0,0,0
1564762452593.75,175.56,0,0,0,0,0
1564762452609.38,184.71,0,0,0,0,0
1564762452625,194.12,0,0,0,0,0
1564762452640.63,204.1,0,0,0,0,0
1564762452656.25,215.03,0,0,0,0,0
1564762452671.88,227.47,0,0,0,0,0
1564762452687.5,242,0,0,0,0,0
1564762452703.13,258.8,0,0,0,0,0
1564762452718.75,277.03,0,0,0,0,0
1564762452734.38,294.63,0,0,0,0,0
1564762452750,308.53,0,0,0,0,0
1564762452765.63,315.67,0,0,0,0,0
1564762452781.25,314.18,0,0,0,0,0
1564762452796.88,304.19,0,0,0,0,0
1564762452812.5,287.75,0,0,0,0,0
1564762452828.13,267.94,0,0,0,0,0
1564762452843.75,247.59,0,0,0,0,0
1564762452859.38,228.31,0,0,0,0,0
1564762452875,210.35,0,0,0,0,0
1564762452890.63,192.99,0,0,0,0,0
1564762452906.25,175.31,0,0,0,0,0
1564762452921.88,156.69,0,0,0,0,0
1564762452937.5,136.78,0,0,0,0,0
1564762452953.13,115.28,0,0,0,0,0
1564762452968.75,91.78,0,0,0,0,0
1564762452984.38,66.22,0,0,0,0,0
1564762453000,39.39,0,0,0,0,0
1564762453015.63,13.59,0,0,0,0,0
1564762453031.25,-7.7,0,0,0,0,0
1564762453046.88,-20.64,0,0,0,0,0
1564762453062.5,-22.4,0,0,0,0,0
1564762453078.13,-12.4,0,0,0,0,0
1564762453093.75,7.39,0,0,0,0,0
1564762453109.38,33.02,0,0,0,0,0
1564762453125,59.96,0,0,0,0,0
1564762453140.63,84.48,0,0,0,0,0
1564762453156.25,104.42,0,0,0,0,0
1564762453171.88,119.17,0,0,0,0,0
1564762453187.5,128.91,0,0,0,0,0
1564762453203.13,133.92,0,0,0,0,0
1564762453218.75,134.13,0,0,0,0,0
1564762453234.38,129.34,0,0,0,0,0
1564762453250,119.65,0,0,0,0,0
1564762453265.63,105.97,0,0,0,0,0
1564762453281.25,90.1,0,0,0,0,0
1564762453296.88,74.38,0,0,0,0,0
1564762453312.5,61.08,0,0,0,0,0
1564762453328.13,51.65,0,0,0,0,0
1564762453343.75,46.33,0,0,0,0,0
1564762453359.38,44.23,0,0,0,0,0
1564762453375,43.74,0,0,0,0,0
1564762453390.63,43.25,0,0,0,0,0
1564762453406.25,41.81,0,0,0,0,0
1564762453421.88,39.27,0,0,0,0,0
1564762453437.5,36.13,0,0,0,0,0
1564762453453.13,32.93,0,0,0,0,0
1564762453468.75,29.75,0,0,0,0,0
1564762453484.38,25.95,0,0,0,0,0
1564762453500,20.43,0,0,0,0,0
1564762453515.63,12.03,0,0,0,0,0
1564762453531.25,0.11,0,0,0,0,0
1564762453546.88,-15.19,0,0,0,0,0
1564762453562.5,-32.79,0,0,0,0,0
1564762453578.13,-50.71,0,0,0,0,0
1564762453593.75,-66.31,0,0,0,0,0
1564762453609.38,-76.74,0,0,0,0,0
1564762453625,-79.48,0,0,0,0,0
1564762453640.63,-73.09,0,0,0,0,0
1564762453656.25,-57.68,0,0,0,0,0
1564762453671.88,-35,0,0,0,0,0
1564762453687.5,-7.97,0,0,0,0,0
1564762453703.13,20.07,0,0,0,0,0
1564762453718.75,46.19,0,0,0,0,0
1564762453734.38,68.37,0,0,0,0,0
1564762453750,85.48,0,0,0,0,0
1564762453765.63,97.06,0,0,0,0,0
1564762453781.25,102.93,0,0,0,0,0
1564762453796.88,103.11,0,0,0,0,0
1564762453812.5,97.97,0,0,0,0,0
1564762453828.13,88.42,0,0,0,0,0
1564762453843.75,75.86,0,0,0,0,0
1564762453859.38,62.01,0,0,0,0,0
1564762453875,48.4,0,0,0,0,0
1564762453890.63,36.01,0,0,0,0,0
1564762453906.25,25.17,0,0,0,0,0
1564762453921.88,15.67,0,0,0,0,0
1564762453937.5,7.2,0,0,0,0,0
1564762453953.13,-0.32,0,0,0,0,0
1564762453968.75,-6.58,0,0,0,0,0
1564762453984.38,-11.06,0,0,0,0,0
1564762454000,-13.28,0,0,0,0,0
1564762454015.63,-13.26,0,0,0,0,0
1564762454031.25,-11.66,0,0,0,0,0
1564762454046.88,-9.74,0,0,0,0,0
1564762454062.5,-9.22,0,0,0,0,0
1564762454078.13,-11.73,0,0,0,0,0
1564762454093.75,-18.46,0,0,0,0,0
1564762454109.38,-29.47,0,0,0,0,0
1564762454125,-43.38,0,0,0,0,0
1564762454140.63,-57.42,0,0,0,0,0
1564762454156.25,-68.01,0,0,0,0,0
1564762454171.88,-71.71,0,0,0,0,0
1564762454187.5,-66.38,0,0,0,0,0
1564762454203.13,-51.84,0,0,0,0,0
1564762454218.75,-29.92,0,0,0,0,0
1564762454234.38,-3.92,0,0,0,0,0
1564762454250,22.51,0,0,0,0,0
1564762454265.63,46.2,0,0,0,0,0
1564762454281.25,65.07,0,0,0,0,0
1564762454296.88,78.08,0,0,0,0,0
1564762454312.5,85.01,0,0,0,0,0
1564762454328.13,86.16,0,0,0,0,0
1564762454343.75,82.13,0,0,0,0,0
1564762454359.38,73.88,0,0,0,0,0
1564762454375,62.61,0,0,0,0,0
1564762454390.63,49.74,0,0,0,0,0
1564762454406.25,36.61,0,0,0,0,0
1564762454421.88,24.29,0,0,0,0,0
1564762454437.5,13.38,0,0,0,0,0
1564762454453.13,4.09,0,0,0,0,0
1564762454468.75,-3.56,0,0,0,0,0
1564762454484.38,-9.54,0,0,0,0,0
1564762454500,-13.66,0,0,0,0,0
1564762454515.63,-15.66,0,0,0,0,0
1564762454531.25,-15.47,0,0,0,0,0
1564762454546.88,-13.46,0,0,0,0,0
1564762454562.5,-10.6,0,0,0,0,0
1564762454578.13,-8.3,0,0,0,0,0
1564762454593.75,-8.14,0,0,0,0,0
1564762454609.38,-11.41,0,0,0,0,0
1564762454625,-18.8,0,0,0,0,0
1564762454640.63,-30.09,0,0,0,0,0
1564762454656.25,-44.11,0,0,0,0,0
1564762454671.88,-58.73,0,0,0,0,0
1564762454687.5,-71.2,0,0,0,0,0
1564762454703.13,-78.74,0,0,0,0,0
1564762454718.75,-79.28,0,0,0,0,0
1564762454734.38,-72.19,0,0,0,0,0
1564762454750,-58.55,0,0,0,0,0
1564762454765.63,-40.86,0,0,0,0,0
1564762454781.25,-22.24,0,0,0,0,0
1564762454796.88,-5.43,0,0,0,0,0
1564762454812.5,7.87,0,0,0,0,0
1564762454828.13,17.2,0,0,0,0,0
1564762454843.75,22.92,0,0,0,0,0
1564762454859.38,25.59,0,0,0,0,0
1564762454875,25.51,0,0,0,0,0
1564762454890.63,22.66,0,0,0,0,0
1564762454906.25,16.94,0,0,0,0,0
1564762454921.88,8.55,0,0,0,0,0
1564762454937.5,-1.79,0,0,0,0,0
1564762454953.13,-12.99,0,0,0,0,0
1564762454968.75,-23.77,0,0,0,0,0
1564762454984.38,-33.1,0,0,0,0,0
1564762455000,-40.31,0,0,0,0,0
1564762455015.63,-45.17,0,0,0,0,0
1564762455031.25,-47.65,0,0,0,0,0
1564762455046.88,-47.73,0,0,0,0,0
1564762455062.5,-45.31,0,0,0,0,0
1564762455078.13,-40.24,0,0,0,0,0
1564762455093.75,-32.53,0,0,0,0,0
1564762455109.38,-22.5,0,0,0,0,0
1564762455125,-10.95,0,0,0,0,0
1564762455140.63,0.98,0,0,0,0,0
1564762455156.25,12.09,0,0,0,0,0
1564762455171.88,21.56,0,0,0,0,0
1564762455187.5,29.19,0,0,0,0,0
1564762455203.13,35.44,0,0,0,0,0
1564762455218.75,41.26,0,0,0,0,0
1564762455234.38,47.65,0,0,0,0,0
1564762455250,55.47,0,0,0,0,0
1564762455265.63,65.24,0,0,0,0,0
1564762455281.25,77.2,0,0,0,0,0
1564762455296.88,91.27,0,0,0,0,0
1564762455312.5,107.04,0,0,0,0,0
1564762455328.13,123.65,0,0,0,0,0
1564762455343.75,139.81,0,0,0,0,0
1564762455359.38,154.06,0,0,0,0,0
1564762455375,165.09,0,0,0,0,0
1564762455390.63,172.08,0,0,0,0,0
1564762455406.25,174.95,0,0,0,0,0
1564762455421.88,174.1,0,0,0,0,0
1564762455437.5,170.23,0,0,0,0,0
1564762455453.13,163.94,0,0,0,0,0
1564762455468.75,155.6,0,0,0,0,0
1564762455484.38,145.39,0,0,0,0,0
1564762455500,133.41,0,0,0,0,0
1564762455515.63,119.84,0,0,0,0,0
1564762455531.25,104.93,0,0,0,0,0
1564762455546.88,89.03,0,0,0,0,0
1564762455562.5,72.51,0,0,0,0,0
1564762455578.13,55.79,0,0,0,0,0
1564762455593.75,39.31,0,0,0,0,0
1564762455609.38,23.52,0,0,0,0,0
1564762455625,8.73,0,0,0,0,0
1564762455640.63,-4.96,0,0,0,0,0
1564762455656.25,-17.85,0,0,0,0,0
1564762455671.88,-30.56,0,0,0,0,0
1564762455687.5,-43.91,0,0,0,0,0
1564762455703.13,-58.56,0,0,0,0,0
1564762455718.75,-74.6,0,0,0,0,0
1564762455734.38,-91.24,0,0,0,0,0
1564762455750,-106.7,0,0,0,0,0
1564762455765.63,-118.55,0,0,0,0,0
1564762455781.25,-124.36,0,0,0,0,0
1564762455796.88,-122.43,0,0,0,0,0
1564762455812.5,-112.4,0,0,0,0,0
1564762455828.13,-95.41,0,0,0,0,0
1564762455843.75,-73.84,0,0,0,0,0
1564762455859.38,-50.63,0,0,0,0,0
1564762455875,-28.54,0,0,0,0,0
1564762455890.63,-9.58,0,0,0,0,0
1564762455906.25,5.17,0,0,0,0,0
1564762455921.88,15.41,0,0,0,0,0
1564762455937.5,21.33,0,0,0,0,0
1564762455953.13,23.37,0,0,0,0,0
1564762455968.75,22.08,0,0,0,0,0
1564762455984.38,18.05,0,0,0,0,0
1564762456000,12.03,0,0,0,0,0
1564762456015.63,4.84,0,0,0,0,0
1564762456031.25,-2.68,0,0,0,0,0
1564762456046.88,-9.82,0,0,0,0,0
1564762456062.5,-16.03,0,0,0,0,0
1564762456078.13,-20.97,0,0,0,0,0
1564762456093.75,-24.43,0,0,0,0,0
1564762456109.38,-26.3,0,0,0,0,0
1564762456125,-26.48,0,0,0,0,0
1564762456140.63,-25.04,0,0,0,0,0
1564762456156.25,-22.21,0,0,0,0,0
1564762456171.88,-18.55,0,0,0,0,0
1564762456187.5,-14.87,0,0,0,0,0
1564762456203.13,-12.18,0,0,0,0,0
1564762456218.75,-11.55,0,0,0,0,0
1564762456234.38,-13.85,0,0,0,0,0
1564762456250,-19.43,0,0,0,0,0
1564762456265.63,-27.76,0,0,0,0,0
1564762456281.25,-37.31,0,0,0,0,0
1564762456296.88,-45.67,0,0,0,0,0
1564762456312.5,-50.12,0,0,0,0,0
1564762456328.13,-48.4,0,0,0,0,0
1564762456343.75,-39.53,0,0,0,0,0
1564762456359.38,-24.2,0,0,0,0,0
1564762456375,-4.57,0,0,0,0,0
1564762456390.63,16.39,0,0,0,0,0
1564762456406.25,35.82,0,0,0,0,0
1564762456421.88,51.6,0,0,0,0,0
1564762456437.5,62.6,0,0,0,0,0
1564762456453.13,68.48,0,0,0,0,0
1564762456468.75,69.35,0,0,0,0,0
1564762456484.38,65.54,0,0,0,0,0
1564762456500,57.59,0,0,0,0,0
1564762456515.63,46.38,0,0,0,0,0
1564762456531.25,33.17,0,0,0,0,0
1564762456546.88,19.49,0,0,0,0,0
1564762456562.5,6.85,0,0,0,0,0
1564762456578.13,-3.66,0,0,0,0,0
1564762456593.75,-11.54,0,0,0,0,0
1564762456609.38,-16.99,0,0,0,0,0
1564762456625,-20.55,0,0,0,0,0
1564762456640.63,-22.85,0,0,0,0,0
1564762456656.25,-24.19,0,0,0,0,0
1564762456671.88,-24.45,0,0,0,0,0
1564762456687.5,-23.21,0,0,0,0,0
1564762456703.13,-20.09,0,0,0,0,0
1564762456718.75,-15.08,0,0,0,0,0
1564762456734.38,-8.81,0,0,0,0,0
1564762456750,-2.44,0,0,0,0,0
1564762456765.63,2.64,0,0,0,0,0
1564762456781.25,5.2,0,0,0,0,0
1564762456796.88,4.58,0,0,0,0,0
1564762456812.5,0.87,0,0,0,0,0
1564762456828.13,-5,0,0,0,0,0
1564762456843.75,-11.39,0,0,0,0,0
1564762456859.38,-16.23,0,0,0,0,0
1564762456875,-17.51,0,0,0,0,0
1564762456890.63,-13.73,0,0,0,0,0
1564762456906.25,-4.52,0,0,0,0,0
1564762456921.88,9.16,0,0,0,0,0
1564762456937.5,25.27,0,0,0,0,0
1564762456953.13,41.16,0,0,0,0,0
1564762456968.75,54.47,0,0,0,0,0
1564762456984.38,63.63,0,0,0,0,0
1564762457000,68.11,0,0,0,0,0
1564762457015.63,68.22,0,0,0,0,0
1564762457031.25,64.69,0,0,0,0,0
1564762457046.88,58.31,0,0,0,0,0
1564762457062.5,49.81,0,0,0,0,0
1564762457078.13,39.89,0,0,0,0,0
1564762457093.75,29.29,0,0,0,0,0
1564762457109.38,18.8,0,0,0,0,0
1564762457125,9.12,0,0,0,0,0
1564762457140.63,0.81,0,0,0,0,0
1564762457156.25,-5.77,0,0,0,0,0
1564762457171.88,-10.41,0,0,0,0,0
1564762457187.5,-12.99,0,0,0,0,0
1564762457203.13,-13.53,0,0,0,0,0
1564762457218.75,-12.29,0,0,0,0,0
1564762457234.38,-9.89,0,0,0,0,0
1564762457250,-7.25,0,0,0,0,0
1564762457265.63,-5.43,0,0,0,0,0
1564762457281.25,-5.41,0,0,0,0,0
1564762457296.88,-7.76,0,0,0,0,0
1564762457312.5,-12.58,0,0,0,0,0
1564762457328.13,-19.38,0,0,0,0,0
1564762457343.75,-27.08,0,0,0,0,0
1564762457359.38,-34.11,0,0,0,0,0
1564762457375,-38.68,0,0,0,0,0
1564762457390.63,-39.17,0,0,0,0,0
1564762457406.25,-34.71,0,0,0,0,0
1564762457421.88,-25.44,0,0,0,0,0
1564762457437.5,-12.62,0,0,0,0,0
1564762457453.13,1.86,0,0,0,0,0
1564762457468.75,16.15,0,0,0,0,0
1564762457484.38,28.95,0,0,0,0,0
1564762457500,39.84,0,0,0,0,0
1564762457515.63,48.94,0,0,0,0,0
1564762457531.25,56.57,0,0,0,0,0
1564762457546.88,62.72,0,0,0,0,0
1564762457562.5,66.96,0,0,0,0,0
1564762457578.13,68.55,0,0,0,0,0
1564762457593.75,66.76,0,0,0,0,0
1564762457609.38,61.15,0,0,0,0,0
1564762457625,51.74,0,0,0,0,0
1564762457640.63,38.97,0,0,0,0,0
1564762457656.25,23.55,0,0,0,0,0
1564762457671.88,6.46,0,0,0,0,0
1564762457687.5,-11.11,0,0,0,0,0
1564762457703.13,-27.72,0,0,0,0,0
1564762457718.75,-41.81,0,0,0,0,0
1564762457734.38,-51.91,0,0,0,0,0
1564762457750,-57.02,0,0,0,0,0
1564762457765.63,-57.01,0,0,0,0,0
1564762457781.25,-52.87,0,0,0,0,0
1564762457796.88,-46.62,0,0,0,0,0
1564762457812.5,-40.83,0,0,0,0,0
1564762457828.13,-37.94,0,0,0,0,0
1564762457843.75,-39.43,0,0,0,0,0
1564762457859.38,-45.3,0,0,0,0,0
1564762457875,-54.01,0,0,0,0,0
1564762457890.63,-62.9,0,0,0,0,0
1564762457906.25,-68.95,0,0,0,0,0
1564762457921.88,-69.66,0,0,0,0,0
1564762457937.5,-63.74,0,0,0,0,0
1564762457953.13,-51.33,0,0,0,0,0
1564762457968.75,-33.92,0,0,0,0,0
1564762457984.38,-13.76,0,0,0,0,0
1564762458000,6.67,0,0,0,0,0
1564762458015.63,25.17,0,0,0,0,0
1564762458031.25,40.16,0,0,0,0,0
1564762458046.88,50.78,0,0,0,0,0
1564762458062.5,56.88,0,0,0,0,0
1564762458078.13,58.87,0,0,0,0,0
1564762458093.75,57.62,0,0,0,0,0
1564762458109.38,54.13,0,0,0,0,0
1564762458125,49.27,0,0,0,0,0
1564762458140.63,43.58,0,0,0,0,0
1564762458156.25,37.21,0,0,0,0,0
1564762458171.88,30.04,0,0,0,0,0
1564762458187.5,22.04,0,0,0,0,0
1564762458203.13,13.47,0,0,0,0,0
1564762458218.75,4.99,0,0,0,0,0
1564762458234.38,-2.61,0,0,0,0,0
1564762458250,-8.74,0,0,0,0,0
1564762458265.63,-13.29,0,0,0,0,0
1564762458281.25,-16.61,0,0,0,0,0
1564762458296.88,-19.32,0,0,0,0,0
1564762458312.5,-21.93,0,0,0,0,0
1564762458328.13,-24.77,0,0,0,0,0
1564762458343.75,-27.96,0,0,0,0,0
1564762458359.38,-31.61,0,0,0,0,0
1564762458375,-35.83,0,0,0,0,0
1564762458390.63,-40.51,0,0,0,0,0
1564762458406.25,-44.94,0,0,0,0,0
1564762458421.88,-47.65,0,0,0,0,0
1564762458437.5,-46.62,0,0,0,0,0
1564762458453.13,-39.95,0,0,0,0,0
1564762458468.75,-26.69,0,0,0,0,0
1564762458484.38,-7.39,0,0,0,0,0
1564762458500,15.87,0,0,0,0,0
1564762458515.63,40.1,0,0,0,0,0
1564762458531.25,62.2,0,0,0,0,0
1564762458546.88,79.6,0,0,0,0,0
1564762458562.5,90.67,0,0,0,0,0
1564762458578.13,94.7,0,0,0,0,0
1564762458593.75,91.66,0,0,0,0,0
1564762458609.38,82.09,0,0,0,0,0
1564762458625,66.9,0,0,0,0,0
1564762458640.63,47.27,0,0,0,0,0
1564762458656.25,24.67,0,0,0,0,0
1564762458671.88,0.74,0,0,0,0,0
1564762458687.5,-22.78,0,0,0,0,0
1564762458703.13,-44.18,0,0,0,0,0
1564762458718.75,-61.94,0,0,0,0,0
1564762458734.38,-74.94,0,0,0,0,0
1564762458750,-82.71,0,0,0,0,0
1564762458765.63,-85.53,0,0,0,0,0
1564762458781.25,-84.37,0,0,0,0,0
1564762458796.88,-80.56,0,0,0,0,0
1564762458812.5,-75.44,0,0,0,0,0
1564762458828.13,-70.19,0,0,0,0,0
1564762458843.75,-65.88,0,0,0,0,0
1564762458859.38,-63.58,0,0,0,0,0
1564762458875,-64.34,0,0,0,0,0
1564762458890.63,-68.84,0,0,0,0,0
1564762458906.25,-76.82,0,0,0,0,0
1564762458921.88,-86.73,0,0,0,0,0
1564762458937.5,-95.81,0,0,0,0,0
1564762458953.13,-100.79,0,0,0,0,0
1564762458968.75,-99.08,0,0,0,0,0
1564762458984.38,-89.72,0,0,0,0,0
1564762459000,-73.73,0,0,0,0,0
1564762459015.63,-53.65,0,0,0,0,0
1564762459031.25,-32.54,0,0,0,0,0
1564762459046.88,-12.9,0,0,0,0,0
1564762459062.5,3.95,0,0,0,0,0
1564762459078.13,17.85,0,0,0,0,0
1564762459093.75,29.44,0,0,0,0,0
1564762459109.38,39.55,0,0,0,0,0
1564762459125,48.93,0,0,0,0,0
1564762459140.63,58.16,0,0,0,0,0
1564762459156.25,67.56,0,0,0,0,0
1564762459171.88,77.25,0,0,0,0,0
1564762459187.5,87.14,0,0,0,0,0
1564762459203.13,96.85,0,0,0,0,0
1564762459218.75,105.87,0,0,0,0,0
1564762459234.38,113.69,0,0,0,0,0
1564762459250,119.98,0,0,0,0,0
1564762459265.63,124.54,0,0,0,0,0
1564762459281.25,127.07,0,0,0,0,0
1564762459296.88,126.96,0,0,0,0,0
1564762459312.5,123.39,0,0,0,0,0
1564762459328.13,115.67,0,0,0,0,0
1564762459343.75,103.8,0,0,0,0,0
1564762459359.38,88.79,0,0,0,0,0
1564762459375,72.48,0,0,0,0,0
1564762459390.63,56.83,0,0,0,0,0
1564762459406.25,43.4,0,0,0,0,0
1564762459421.88,33,0,0,0,0,0
1564762459437.5,26.06,0,0,0,0,0
1564762459453.13,23.21,0,0,0,0,0
1564762459468.75,25.63,0,0,0,0,0
1564762459484.38,34.75,0,0,0,0,0
1564762459500,51.34,0,0,0,0,0
1564762459515.63,74.49,0,0,0,0,0
1564762459531.25,101.04,0,0,0,0,0
1564762459546.88,126.24,0,0,0,0,0
1564762459562.5,144.99,0,0,0,0,0
1564762459578.13,153.42,0,0,0,0,0
1564762459593.75,149.88,0,0,0,0,0
1564762459609.38,135.04,0,0,0,0,0
1564762459625,111.14,0,0,0,0,0
1564762459640.63,81.01,0,0,0,0,0
1564762459656.25,47.35,0,0,0,0,0
1564762459671.88,12.37,0,0,0,0,0
1564762459687.5,-21.96,0,0,0,0,0
1564762459703.13,-53.68,0,0,0,0,0
1564762459718.75,-80.71,0,0,0,0,0
1564762459734.38,-101.05,0,0,0,0,0
1564762459750,-113.07,0,0,0,0,0
1564762459765.63,-116.06,0,0,0,0,0
1564762459781.25,-110.37,0,0,0,0,0
1564762459796.88,-97.36,0,0,0,0,0
1564762459812.5,-79.1,0,0,0,0,0
1564762459828.13,-57.84,0,0,0,0,0
1564762459843.75,-35.7,0,0,0,0,0
1564762459859.38,-14.43,0,0,0,0,0
1564762459875,4.61,0,0,0,0,0
1564762459890.63,20.29,0,0,0,0,0
1564762459906.25,31.67,0,0,0,0,0
1564762459921.88,38.19,0,0,0,0,0
1564762459937.5,39.95,0,0,0,0,0
1564762459953.13,38.01,0,0,0,0,0
1564762459968.75,34.37,0,0,0,0,0
1564762459984.38,31.53,0,0,0,0,0
1564762460000,31.7,0,0,0,0,0
1564762460015.63,35.84,0,0,0,0,0
1564762460031.25,43.18,0,0,0,0,0
1564762460046.88,51.25,0,0,0,0,0
1564762460062.5,56.74,0,0,0,0,0
1564762460078.13,56.62,0,0,0,0,0
1564762460093.75,49.05,0,0,0,0,0
1564762460109.38,33.89,0,0,0,0,0
1564762460125,12.36,0,0,0,0,0
1564762460140.63,-13.66,0,0,0,0,0
1564762460156.25,-42.36,0,0,0,0,0
1564762460171.88,-72.46,0,0,0,0,0
1564762460187.5,-103.16,0,0,0,0,0
1564762460203.13,-133.91,0,0,0,0,0
1564762460218.75,-164.03,0,0,0,0,0
1564762460234.38,-192.53,0,0,0,0,0
1564762460250,-218.09,0,0,0,0,0
1564762460265.63,-239.23,0,0,0,0,0
1564762460281.25,-254.37,0,0,0,0,0
1564762460296.88,-262.03,0,0,0,0,0
1564762460312.5,-261,0,0,0,0,0
1564762460328.13,-250.67,0,0,0,0,0
1564762460343.75,-231.17,0,0,0,0,0
1564762460359.38,-203.63,0,0,0,0,0
1564762460375,-170.09,0,0,0,0,0
1564762460390.63,-133.38,0,0,0,0,0
1564762460406.25,-96.74,0,0,0,0,0
1564762460421.88,-63.41,0,0,0,0,0
1564762460437.5,-36.06,0,0,0,0,0
1564762460453.13,-16.17,0,0,0,0,0
1564762460468.75,-3.68,0,0,0,0,0
1564762460484.38,3.03,0,0,0,0,0
1564762460500,6.67,0,0,0,0,0
1564762460515.63,10.04,0,0,0,0,0
1564762460531.25,15.19,0,0,0,0,0
1564762460546.88,22.74,0,0,0,0,0
1564762460562.5,31.88,0,0,0,0,0
1564762460578.13,40.96,0,0,0,0,0
1564762460593.75,48.39,0,0,0,0,0
1564762460609.38,53.24,0,0,0,0,0
1564762460625,55.53,0,0,0,0,0
1564762460640.63,55.89,0,0,0,0,0
1564762460656.25,55.01,0,0,0,0,0
1564762460671.88,53.05,0,0,0,0,0
1564762460687.5,49.49,0,0,0,0,0
1564762460703.13,43.38,0,0,0,0,0
1564762460718.75,33.97,0,0,0,0,0
1564762460734.38,21.31,0,0,0,0,0
1564762460750,6.61,0,0,0,0,0
1564762460765.63,-8.03,0,0,0,0,0
1564762460781.25,-20.3,0,0,0,0,0
1564762460796.88,-28.68,0,0,0,0,0
1564762460812.5,-33.09,0,0,0,0,0
1564762460828.13,-34.95,0,0,0,0,0
1564762460843.75,-36.57,0,0,0,0,0
1564762460859.38,-40.17,0,0,0,0,0
1564762460875,-47.01,0,0,0,0,0
1564762460890.63,-57.17,0,0,0,0,0
1564762460906.25,-69.87,0,0,0,0,0
1564762460921.88,-84.23,0,0,0,0,0
1564762460937.5,-99.82,0,0,0,0,0
1564762460953.13,-116.72,0,0,0,0,0
1564762460968.75,-134.85,0,0,0,0,0
1564762460984.38,-153.21,0,0,0,0,0
1564762461000,-169.29,0,0,0,0,0
1564762461015.63,-179.5,0,0,0,0,0
1564762461031.25,-180.41,0,0,0,0,0
1564762461046.88,-170.26,0,0,0,0,0
1564762461062.5,-150.05,0,0,0,0,0
1564762461078.13,-123.46,0,0,0,0,0
1564762461093.75,-95.61,0,0,0,0,0
1564762461109.38,-71.24,0,0,0,0,0
1564762461125,-53.25,0,0,0,0,0
1564762461140.63,-42.18,0,0,0,0,0
1564762461156.25,-36.82,0,0,0,0,0
1564762461171.88,-35.53,0,0,0,0,0
1564762461187.5,-37.24,0,0,0,0,0
1564762461203.13,-41.78,0,0,0,0,0
1564762461218.75,-49.51,0,0,0,0,0
1564762461234.38,-60.5,0,0,0,0,0
1564762461250,-73.99,0,0,0,0,0
1564762461265.63,-88.39,0,0,0,0,0
1564762461281.25,-101.78,0,0,0,0,0
1564762461296.88,-112.49,0,0,0,0,0
1564762461312.5,-119.56,0,0,0,0,0
1564762461328.13,-122.84,0,0,0,0,0
1564762461343.75,-122.72,0,0,0,0,0
1564762461359.38,-119.88,0,0,0,0,0
1564762461375,-114.96,0,0,0,0,0
1564762461390.63,-108.63,0,0,0,0,0
1564762461406.25,-101.62,0,0,0,0,0
1564762461421.88,-94.91,0,0,0,0,0
1564762461437.5,-89.78,0,0,0,0,0
1564762461453.13,-87.66,0,0,0,0,0
1564762461468.75,-89.63,0,0,0,0,0
1564762461484.38,-95.89,0,0,0,0,0
1564762461500,-105.25,0,0,0,0,0
1564762461515.63,-115.02,0,0,0,0,0
1564762461531.25,-121.51,0,0,0,0,0
1564762461546.88,-120.99,0,0,0,0,0
1564762461562.5,-110.92,0,0,0,0,0
1564762461578.13,-90.74,0,0,0,0,0
1564762461593.75,-62.14,0,0,0,0,0
1564762461609.38,-28.44,0,0,0,0,0
1564762461625,6.41,0,0,0,0,0
1564762461640.63,38.9,0,0,0,0,0
1564762461656.25,66.62,0,0,0,0,0
1564762461671.88,88.3,0,0,0,0,0
1564762461687.5,103.48,0,0,0,0,0
1564762461703.13,112.08,0,0,0,0,0
1564762461718.75,114.23,0,0,0,0,0
1564762461734.38,110.28,0,0,0,0,0
1564762461750,101.07,0,0,0,0,0
1564762461765.63,87.97,0,0,0,0,0
1564762461781.25,72.71,0,0,0,0,0
1564762461796.88,57.11,0,0,0,0,0
1564762461812.5,42.72,0,0,0,0,0
1564762461828.13,30.65,0,0,0,0,0
1564762461843.75,21.54,0,0,0,0,0
1564762461859.38,15.63,0,0,0,0,0
1564762461875,12.81,0,0,0,0,0
1564762461890.63,12.6,0,0,0,0,0
1564762461906.25,14.06,0,0,0,0,0
1564762461921.88,15.86,0,0,0,0,0
1564762461937.5,16.47,0,0,0,0,0
1564762461953.13,14.38,0,0,0,0,0
1564762461968.75,8.35,0,0,0,0,0
1564762461984.38,-2.48,0,0,0,0,0
1564762462000,-18.42,0,0,0,0,0
1564762462015.63,-38.97,0,0,0,0,0
1564762462031.25,-62.46,0,0,0,0,0
1564762462046.88,-85.97,0,0,0,0,0
1564762462062.5,-105.68,0,0,0,0,0
1564762462078.13,-117.8,0,0,0,0,0
1564762462093.75,-119.72,0,0,0,0,0
1564762462109.38,-110.96,0,0,0,0,0
1564762462125,-93.36,0,0,0,0,0
1564762462140.63,-70.41,0,0,0,0,0
1564762462156.25,-46,0,0,0,0,0
1564762462171.88,-23.32,0,0,0,0,0
1564762462187.5,-4.1,0,0,0,0,0
1564762462203.13,11.18,0,0,0,0,0
1564762462218.75,22.84,0,0,0,0,0
1564762462234.38,31.25,0,0,0,0,0
1564762462250,36.58,0,0,0,0,0
1564762462265.63,38.9,0,0,0,0,0
1564762462281.25,38.36,0,0,0,0,0
1564762462296.88,35.54,0,0,0,0,0
1564762462312.5,31.35,0,0,0,0,0
1564762462328.13,26.93,0,0,0,0,0
1564762462343.75,23.33,0,0,0,0,0
1564762462359.38,21.36,0,0,0,0,0
1564762462375,21.37,0,0,0,0,0
1564762462390.63,23.25,0,0,0,0,0
1564762462406.25,26.51,0,0,0,0,0
1564762462421.88,30.42,0,0,0,0,0
1564762462437.5,34.23,0,0,0,0,0
1564762462453.13,37.29,0,0,0,0,0
1564762462468.75,39.09,0,0,0,0,0
1564762462484.38,39.15,0,0,0,0,0
1564762462500,36.98,0,0,0,0,0
1564762462515.63,32.17,0,0,0,0,0
1564762462531.25,24.91,0,0,0,0,0
1564762462546.88,16.43,0,0,0,0,0
1564762462562.5,9.2,0,0,0,0,0
1564762462578.13,6.41,0,0,0,0,0
1564762462593.75,10.75,0,0,0,0,0
1564762462609.38,23.18,0,0,0,0,0
1564762462625,42.19,0,0,0,0,0
1564762462640.63,64.22,0,0,0,0,0
1564762462656.25,85.04,0,0,0,0,0
1564762462671.88,101.2,0,0,0,0,0
1564762462687.5,111.13,0,0,0,0,0
1564762462703.13,115.02,0,0,0,0,0
1564762462718.75,114,0,0,0,0,0
1564762462734.38,109.06,0,0,0,0,0
1564762462750,100.57,0,0,0,0,0
1564762462765.63,88.5,0,0,0,0,0
1564762462781.25,73.02,0,0,0,0,0
1564762462796.88,55.08,0,0,0,0,0
1564762462812.5,36.41,0,0,0,0,0
1564762462828.13,19.11,0,0,0,0,0
1564762462843.75,4.97,0,0,0,0,0
1564762462859.38,-4.9,0,0,0,0,0
1564762462875,-10.19,0,0,0,0,0
1564762462890.63,-11.28,0,0,0,0,0
1564762462906.25,-8.92,0,0,0,0,0
1564762462921.88,-4.13,0,0,0,0,0
1564762462937.5,1.95,0,0,0,0,0
1564762462953.13,7.99,0,0,0,0,0
1564762462968.75,12.58,0,0,0,0,0
1564762462984.38,14.3,0,0,0,0,0
1564762463000,11.8,0,0,0,0,0
1564762463015.63,4.02,0,0,0,0,0
1564762463031.25,-9.29,0,0,0,0,0
1564762463046.88,-27.03,0,0,0,0,0
1564762463062.5,-46.24,0,0,0,0,0
1564762463078.13,-62.31,0,0,0,0,0
1564762463093.75,-70.06,0,0,0,0,0
1564762463109.38,-65.43,0,0,0,0,0
1564762463125,-47.15,0,0,0,0,0
1564762463140.63,-17.44,0,0,0,0,0
1564762463156.25,18.59,0,0,0,0,0
1564762463171.88,54.72,0,0,0,0,0
1564762463187.5,85.65,0,0,0,0,0
1564762463203.13,108.33,0,0,0,0,0
1564762463218.75,122.11,0,0,0,0,0
1564762463234.38,127.81,0,0,0,0,0
1564762463250,126.66,0,0,0,0,0
1564762463265.63,119.55,0,0,0,0,0
1564762463281.25,107.09,0,0,0,0,0
1564762463296.88,90.22,0,0,0,0,0
1564762463312.5,70.59,0,0,0,0,0
1564762463328.13,50.42,0,0,0,0,0
1564762463343.75,31.95,0,0,0,0,0
1564762463359.38,16.77,0,0,0,0,0
1564762463375,5.38,0,0,0,0,0
1564762463390.63,-2.65,0,0,0,0,0
1564762463406.25,-8.11,0,0,0,0,0
1564762463421.88,-11.6,0,0,0,0,0
1564762463437.5,-13.26,0,0,0,0,0
1564762463453.13,-12.9,0,0,0,0,0
1564762463468.75,-10.5,0,0,0,0,0
1564762463484.38,-6.64,0,0,0,0,0
1564762463500,-2.55,0,0,0,0,0
1564762463515.63,0.12,0,0,0,0,0
1564762463531.25,-0.23,0,0,0,0,0
1564762463546.88,-4.55,0,0,0,0,0
1564762463562.5,-12.85,0,0,0,0,0
1564762463578.13,-24.01,0,0,0,0,0
1564762463593.75,-35.8,0,0,0,0,0
1564762463609.38,-45.33,0,0,0,0,0
1564762463625,-49.59,0,0,0,0,0
1564762463640.63,-46.25,0,0,0,0,0
1564762463656.25,-34.42,0,0,0,0,0
1564762463671.88,-15,0,0,0,0,0
1564762463687.5,9.55,0,0,0,0,0
1564762463703.13,35.85,0,0,0,0,0
1564762463718.75,60.6,0,0,0,0,0
1564762463734.38,81.32,0,0,0,0,0
1564762463750,96.67,0,0,0,0,0
1564762463765.63,106.25,0,0,0,0,0
1564762463781.25,110.22,0,0,0,0,0
1564762463796.88,108.95,0,0,0,0,0
1564762463812.5,102.94,0,0,0,0,0
1564762463828.13,92.96,0,0,0,0,0
1564762463843.75,80.13,0,0,0,0,0
1564762463859.38,66.02,0,0,0,0,0
1564762463875,52.29,0,0,0,0,0
1564762463890.63,40.33,0,0,0,0,0
1564762463906.25,30.97,0,0,0,0,0
1564762463921.88,24.25,0,0,0,0,0
1564762463937.5,19.64,0,0,0,0,0
1564762463953.13,16.34,0,0,0,0,0
1564762463968.75,13.74,0,0,0,0,0
1564762463984.38,11.61,0,0,0,0,0
1564762464000,10.08,0,0,0,0,0
1564762464015.63,9.36,0,0,0,0,0
1564762464031.25,9.33,0,0,0,0,0
1564762464046.88,9.28,0,0,0,0,0
1564762464062.5,7.89,0,0,0,0,0
1564762464078.13,3.64,0,0,0,0,0
1564762464093.75,-4.52,0,0,0,0,0
1564762464109.38,-16.5,0,0,0,0,0
1564762464125,-30.59,0,0,0,0,0
1564762464140.63,-43.68,0,0,0,0,0
1564762464156.25,-52,0,0,0,0,0
1564762464171.88,-52.31,0,0,0,0,0
1564762464187.5,-43.07,0,0,0,0,0
1564762464203.13,-24.94,0,0,0,0,0
1564762464218.75,-0.65,0,0,0,0,0
1564762464234.38,25.94,0,0,0,0,0
1564762464250,51.05,0,0,0,0,0
1564762464265.63,71.85,0,0,0,0,0
1564762464281.25,86.84,0,0,0,0,0
1564762464296.88,95.63,0,0,0,0,0
1564762464312.5,98.43,0,0,0,0,0
1564762464328.13,95.64,0,0,0,0,0
1564762464343.75,87.81,0,0,0,0,0
1564762464359.38,75.76,0,0,0,0,0
1564762464375,60.78,0,0,0,0,0
1564762464390.63,44.6,0,0,0,0,0
1564762464406.25,29.07,0,0,0,0,0
1564762464421.88,15.74,0,0,0,0,0
1564762464437.5,5.51,0,0,0,0,0
1564762464453.13,-1.53,0,0,0,0,0
1564762464468.75,-5.82,0,0,0,0,0
1564762464484.38,-7.97,0,0,0,0,0
1564762464500,-8.39,0,0,0,0,0
1564762464515.63,-7.12,0,0,0,0,0
1564762464531.25,-3.99,0,0,0,0,0
1564762464546.88,0.96,0,0,0,0,0
1564762464562.5,7.19,0,0,0,0,0
1564762464578.13,13.52,0,0,0,0,0
1564762464593.75,18.27,0,0,0,0,0
1564762464609.38,19.74,0,0,0,0,0
1564762464625,16.74,0,0,0,0,0
1564762464640.63,9.08,0,0,0,0,0
1564762464656.25,-2.1,0,0,0,0,0
1564762464671.88,-14.36,0,0,0,0,0
1564762464687.5,-24.51,0,0,0,0,0
1564762464703.13,-29.4,0,0,0,0,0
1564762464718.75,-26.96,0,0,0,0,0
1564762464734.38,-16.86,0,0,0,0,0
1564762464750,-0.56,0,0,0,0,0
1564762464765.63,19.22,0,0,0,0,0
1564762464781.25,39.51,0,0,0,0,0
1564762464796.88,57.97,0,0,0,0,0
1564762464812.5,73.33,0,0,0,0,0
1564762464828.13,85.05,0,0,0,0,0
1564762464843.75,92.89,0,0,0,0,0
1564762464859.38,96.43,0,0,0,0,0
1564762464875,95.04,0,0,0,0,0
1564762464890.63,88.41,0,0,0,0,0
1564762464906.25,77.02,0,0,0,0,0
1564762464921.88,62.34,0,0,0,0,0
1564762464937.5,46.51,0,0,0,0,0
1564762464953.13,31.71,0,0,0,0,0
1564762464968.75,19.5,0,0,0,0,0
1564762464984.38,10.51,0,0,0,0,0
1564762465000,4.66,0,0,0,0,0
1564762465015.63,1.44,0,0,0,0,0
1564762465031.25,0.38,0,0,0,0,0
1564762465046.88,1.1,0,0,0,0,0
1564762465062.5,3.14,0,0,0,0,0
1564762465078.13,5.8,0,0,0,0,0
1564762465093.75,7.99,0,0,0,0,0
1564762465109.38,8.41,0,0,0,0,0
1564762465125,5.88,0,0,0,0,0
1564762465140.63,-0.32,0,0,0,0,0
1564762465156.25,-10.15,0,0,0,0,0
1564762465171.88,-22.66,0,0,0,0,0
1564762465187.5,-36.03,0,0,0,0,0
1564762465203.13,-47.79,0,0,0,0,0
1564762465218.75,-55.27,0,0,0,0,0
1564762465234.38,-56.17,0,0,0,0,0
1564762465250,-49.38,0,0,0,0,0
1564762465265.63,-35.3,0,0,0,0,0
1564762465281.25,-15.81,0,0,0,0,0
1564762465296.88,6.15,0,0,0,0,0
1564762465312.5,27.52,0,0,0,0,0
1564762465328.13,45.89,0,0,0,0,0
1564762465343.75,59.82,0,0,0,0,0
1564762465359.38,68.86,0,0,0,0,0
1564762465375,73.14,0,0,0,0,0
1564762465390.63,73.06,0,0,0,0,0
1564762465406.25,69.13,0,0,0,0,0
1564762465421.88,61.98,0,0,0,0,0
1564762465437.5,52.39,0,0,0,0,0
1564762465453.13,41.21,0,0,0,0,0
1564762465468.75,29.3,0,0,0,0,0
1564762465484.38,17.34,0,0,0,0,0
1564762465500,5.94,0,0,0,0,0
1564762465515.63,-4.4,0,0,0,0,0
1564762465531.25,-13.14,0,0,0,0,0
1564762465546.88,-19.76,0,0,0,0,0
1564762465562.5,-23.89,0,0,0,0,0
1564762465578.13,-25.55,0,0,0,0,0
1564762465593.75,-25.18,0,0,0,0,0
1564762465609.38,-23.7,0,0,0,0,0
1564762465625,-22.28,0,0,0,0,0
1564762465640.63,-22.11,0,0,0,0,0
1564762465656.25,-24.12,0,0,0,0,0
1564762465671.88,-28.77,0,0,0,0,0
1564762465687.5,-35.74,0,0,0,0,0
1564762465703.13,-43.91,0,0,0,0,0
1564762465718.75,-51.39,0,0,0,0,0
1564762465734.38,-55.85,0,0,0,0,0
1564762465750,-55.19,0,0,0,0,0
1564762465765.63,-48.18,0,0,0,0,0
1564762465781.25,-34.91,0,0,0,0,0
1564762465796.88,-16.91,0,0,0,0,0
1564762465812.5,3.22,0,0,0,0,0
1564762465828.13,22.51,0,0,0,0,0
1564762465843.75,38.37,0,0,0,0,0
1564762465859.38,49.15,0,0,0,0,0
1564762465875,54.3,0,0,0,0,0
1564762465890.63,54.19,0,0,0,0,0
1564762465906.25,49.79,0,0,0,0,0
1564762465921.88,42.25,0,0,0,0,0
1564762465937.5,32.68,0,0,0,0,0
1564762465953.13,22.08,0,0,0,0,0
1564762465968.75,11.29,0,0,0,0,0
1564762465984.38,1.06,0,0,0,0,0
1564762466000,-7.95,0,0,0,0,0
1564762466015.63,-15.2,0,0,0,0,0
1564762466031.25,-20.34,0,0,0,0,0
1564762466046.88,-23.29,0,0,0,0,0
1564762466062.5,-24.26,0,0,0,0,0
1564762466078.13,-23.75,0,0,0,0,0
1564762466093.75,-22.45,0,0,0,0,0
1564762466109.38,-21.14,0,0,0,0,0
1564762466125,-20.53,0,0,0,0,0
1564762466140.63,-21.24,0,0,0,0,0
1564762466156.25,-23.75,0,0,0,0,0
1564762466171.88,-28.27,0,0,0,0,0
1564762466187.5,-34.5,0,0,0,0,0
1564762466203.13,-41.47,0,0,0,0,0
1564762466218.75,-47.52,0,0,0,0,0
1564762466234.38,-50.5,0,0,0,0,0
1564762466250,-48.43,0,0,0,0,0
1564762466265.63,-40.12,0,0,0,0,0
1564762466281.25,-25.65,0,0,0,0,0
1564762466296.88,-6.54,0,0,0,0,0
1564762466312.5,14.79,0,0,0,0,0
1564762466328.13,35.67,0,0,0,0,0
1564762466343.75,53.93,0,0,0,0,0
1564762466359.38,68.31,0,0,0,0,0
1564762466375,78.37,0,0,0,0,0
1564762466390.63,84.26,0,0,0,0,0
1564762466406.25,86.26,0,0,0,0,0
1564762466421.88,84.65,0,0,0,0,0
1564762466437.5,79.71,0,0,0,0,0
1564762466453.13,71.94,0,0,0,0,0
1564762466468.75,62.2,0,0,0,0,0
1564762466484.38,51.79,0,0,0,0,0
1564762466500,42.16,0,0,0,0,0
1564762466515.63,34.68,0,0,0,0,0
1564762466531.25,30.14,0,0,0,0,0
1564762466546.88,28.64,0,0,0,0,0
1564762466562.5,29.6,0,0,0,0,0
1564762466578.13,32.1,0,0,0,0,0
1564762466593.75,35.27,0,0,0,0,0
1564762466609.38,38.41,0,0,0,0,0
1564762466625,41.12,0,0,0,0,0
1564762466640.63,43.1,0,0,0,0,0
1564762466656.25,43.95,0,0,0,0,0
1564762466671.88,43.23,0,0,0,0,0
1564762466687.5,40.67,0,0,0,0,0
1564762466703.13,36.49,0,0,0,0,0
1564762466718.75,31.53,0,0,0,0,0
1564762466734.38,27.16,0,0,0,0,0
1564762466750,24.78,0,0,0,0,0
1564762466765.63,25.37,0,0,0,0,0
1564762466781.25,29.01,0,0,0,0,0
1564762466796.88,34.92,0,0,0,0,0
1564762466812.5,41.68,0,0,0,0,0
1564762466828.13,47.74,0,0,0,0,0
1564762466843.75,51.85,0,0,0,0,0
1564762466859.38,53.31,0,0,0,0,0
1564762466875,51.97,0,0,0,0,0
1564762466890.63,48.03,0,0,0,0,0
1564762466906.25,41.81,0,0,0,0,0
1564762466921.88,33.58,0,0,0,0,0
1564762466937.5,23.6,0,0,0,0,0
1564762466953.13,12.22,0,0,0,0,0
1564762466968.75,-0.02,0,0,0,0,0
1564762466984.38,-12.44,0,0,0,0,0
1564762467000,-24.39,0,0,0,0,0
1564762467015.63,-35.47,0,0,0,0,0
1564762467031.25,-45.61,0,0,0,0,0
1564762467046.88,-54.95,0,0,0,0,0
1564762467062.5,-63.57,0,0,0,0,0
1564762467078.13,-71.28,0,0,0,0,0
1564762467093.75,-77.55,0,0,0,0,0
1564762467109.38,-81.86,0,0,0,0,0
1564762467125,-83.96,0,0,0,0,0
1564762467140.63,-84.15,0,0,0,0,0
1564762467156.25,-83.27,0,0,0,0,0
1564762467171.88,-82.47,0,0,0,0,0
1564762467187.5,-82.89,0,0,0,0,0
1564762467203.13,-85.4,0,0,0,0,0
1564762467218.75,-90.18,0,0,0,0,0
1564762467234.38,-96.62,0,0,0,0,0
1564762467250,-103.25,0,0,0,0,0
1564762467265.63,-107.97,0,0,0,0,0
1564762467281.25,-108.56,0,0,0,0,0
1564762467296.88,-103.43,0,0,0,0,0
1564762467312.5,-92.23,0,0,0,0,0
1564762467328.13,-76.03,0,0,0,0,0
1564762467343.75,-57.03,0,0,0,0,0
1564762467359.38,-37.8,0,0,0,0,0
1564762467375,-20.58,0,0,0,0,0
1564762467390.63,-6.8,0,0,0,0,0
1564762467406.25,2.93,0,0,0,0,0
1564762467421.88,8.49,0,0,0,0,0
1564762467437.5,9.89,0,0,0,0,0
1564762467453.13,7.11,0,0,0,0,0
1564762467468.75,0.2,0,0,0,0,0
1564762467484.38,-10.5,0,0,0,0,0
1564762467500,-24.07,0,0,0,0,0
1564762467515.63,-39.02,0,0,0,0,0
1564762467531.25,-53.49,0,0,0,0,0
1564762467546.88,-65.7,0,0,0,0,0
1564762467562.5,-74.34,0,0,0,0,0
1564762467578.13,-78.86,0,0,0,0,0
1564762467593.75,-79.41,0,0,0,0,0
1564762467609.38,-76.63,0,0,0,0,0
1564762467625,-71.31,0,0,0,0,0
1564762467640.63,-64.17,0,0,0,0,0
1564762467656.25,-55.87,0,0,0,0,0
1564762467671.88,-46.95,0,0,0,0,0
1564762467687.5,-38.04,0,0,0,0,0
1564762467703.13,-29.83,0,0,0,0,0
1564762467718.75,-22.98,0,0,0,0,0
1564762467734.38,-18.03,0,0,0,0,0
1564762467750,-15.16,0,0,0,0,0
1564762467765.63,-14.11,0,0,0,0,0
1564762467781.25,-14.11,0,0,0,0,0
1564762467796.88,-13.87,0,0,0,0,0
1564762467812.5,-11.83,0,0,0,0,0
1564762467828.13,-6.42,0,0,0,0,0
1564762467843.75,3.46,0,0,0,0,0
1564762467859.38,18.24,0,0,0,0,0
1564762467875,37.66,0,0,0,0,0
1564762467890.63,60.97,0,0,0,0,0
1564762467906.25,87.15,0,0,0,0,0
1564762467921.88,114.95,0,0,0,0,0
1564762467937.5,142.64,0,0,0,0,0
1564762467953.13,167.87,0,0,0,0,0
1564762467968.75,187.74,0,0,0,0,0
1564762467984.38,199.38,0,0,0,0,0
1564762468000,200.87,0,0,0,0,0
1564762468015.63,192,0,0,0,0,0
1564762468031.25,174.55,0,0,0,0,0
1564762468046.88,151.83,0,0,0,0,0
1564762468062.5,127.68,0,0,0,0,0
1564762468078.13,105.38,0,0,0,0,0
1564762468093.75,86.88,0,0,0,0,0
1564762468109.38,72.6,0,0,0,0,0
1564762468125,61.75,0,0,0,0,0
1564762468140.63,52.95,0,0,0,0,0
1564762468156.25,44.81,0,0,0,0,0
1564762468171.88,36.38,0,0,0,0,0
1564762468187.5,27.32,0,0,0,0,0
1564762468203.13,17.82,0,0,0,0,0
1564762468218.75,8.44,0,0,0,0,0
1564762468234.38,-0.43,0,0,0,0,0
1564762468250,-8.81,0,0,0,0,0
1564762468265.63,-17.41,0,0,0,0,0
1564762468281.25,-27.49,0,0,0,0,0
1564762468296.88,-40.31,0,0,0,0,0
1564762468312.5,-56.56,0,0,0,0,0
1564762468328.13,-75.55,0,0,0,0,0
1564762468343.75,-94.98,0,0,0,0,0
1564762468359.38,-111.09,0,0,0,0,0
1564762468375,-119.51,0,0,0,0,0
1564762468390.63,-116.39,0,0,0,0,0
1564762468406.25,-99.5,0,0,0,0,0
1564762468421.88,-68.97,0,0,0,0,0
1564762468437.5,-27.26,0,0,0,0,0
1564762468453.13,21.39,0,0,0,0,0
1564762468468.75,72.06,0,0,0,0,0
1564762468484.38,120.2,0,0,0,0,0
1564762468500,162.56,0,0,0,0,0
1564762468515.63,197.53,0,0,0,0,0
1564762468531.25,225.1,0,0,0,0,0
1564762468546.88,246.24,0,0,0,0,0
1564762468562.5,262.27,0,0,0,0,0
1564762468578.13,274.12,0,0,0,0,0
1564762468593.75,281.99,0,0,0,0,0
1564762468609.38,285.42,0,0,0,0,0
1564762468625,283.77,0,0,0,0,0
1564762468640.63,276.75,0,0,0,0,0
1564762468656.25,264.75,0,0,0,0,0
1564762468671.88,248.82,0,0,0,0,0
1564762468687.5,230.13,0,0,0,0,0
1564762468703.13,209.59,0,0,0,0,0
1564762468718.75,187.53,0,0,0,0,0
1564762468734.38,163.89,0,0,0,0,0
1564762468750,138.64,0,0,0,0,0
1564762468765.63,112.23,0,0,0,0,0
1564762468781.25,85.61,0,0,0,0,0
1564762468796.88,59.79,0,0,0,0,0
1564762468812.5,35.37,0,0,0,0,0
1564762468828.13,11.99,0,0,0,0,0
1564762468843.75,-11.65,0,0,0,0,0
1564762468859.38,-37.42,0,0,0,0,0
1564762468875,-66.98,0,0,0,0,0
1564762468890.63,-101,0,0,0,0,0
1564762468906.25,-138.29,0,0,0,0,0
1564762468921.88,-175.66,0,0,0,0,0
1564762468937.5,-208.23,0,0,0,0,0
1564762468953.13,-230.83,0,0,0,0,0
1564762468968.75,-239.7,0,0,0,0,0
1564762468984.38,-233.99,0,0,0,0,0
1564762469000,-216.28,0,0,0,0,0
1564762469015.63,-191.77,0,0,0,0,0
1564762469031.25,-166.35,0,0,0,0,0
1564762469046.88,-144.71,0,0,0,0,0
1564762469062.5,-129.15,0,0,0,0,0
1564762469078.13,-119.66,0,0,0,0,0
1564762469093.75,-114.95,0,0,0,0,0
1564762469109.38,-113.64,0,0,0,0,0
1564762469125,-114.91,0,0,0,0,0
1564762469140.63,-118.43,0,0,0,0,0
1564762469156.25,-123.87,0,0,0,0,0
1564762469171.88,-130.48,0,0,0,0,0
1564762469187.5,-137.1,0,0,0,0,0
1564762469203.13,-142.54,0,0,0,0,0
1564762469218.75,-145.97,0,0,0,0,0
1564762469234.38,-146.99,0,0,0,0,0
1564762469250,-145.61,0,0,0,0,0
1564762469265.63,-141.99,0,0,0,0,0
1564762469281.25,-136.38,0,0,0,0,0
1564762469296.88,-129.19,0,0,0,0,0
1564762469312.5,-121.14,0,0,0,0,0
1564762469328.13,-113.36,0,0,0,0,0
1564762469343.75,-107.23,0,0,0,0,0
1564762469359.38,-104.06,0,0,0,0,0
1564762469375,-104.65,0,0,0,0,0
1564762469390.63,-109.04,0,0,0,0,0
1564762469406.25,-116.5,0,0,0,0,0
1564762469421.88,-125.77,0,0,0,0,0
1564762469437.5,-135.53,0,0,0,0,0
1564762469453.13,-144.76,0,0,0,0,0
1564762469468.75,-152.93,0,0,0,0,0
1564762469484.38,-160.04,0,0,0,0,0
1564762469500,-166.45,0,0,0,0,0
1564762469515.63,-172.66,0,0,0,0,0
1564762469531.25,-178.95,0,0,0,0,0
1564762469546.88,-185.17,0,0,0,0,0
1564762469562.5,-190.47,0,0,0,0,0
1564762469578.13,-193.31,0,0,0,0,0
1564762469593.75,-191.73,0,0,0,0,0
1564762469609.38,-184.04,0,0,0,0,0
1564762469625,-169.41,0,0,0,0,0
1564762469640.63,-148.41,0,0,0,0,0
1564762469656.25,-123,0,0,0,0,0
1564762469671.88,-96.07,0,0,0,0,0
1564762469687.5,-70.62,0,0,0,0,0
1564762469703.13,-49.07,0,0,0,0,0
1564762469718.75,-32.8,0,0,0,0,0
1564762469734.38,-22.18,0,0,0,0,0
1564762469750,-16.85,0,0,0,0,0
1564762469765.63,-16.15,0,0,0,0,0
1564762469781.25,-19.31,0,0,0,0,0
1564762469796.88,-25.57,0,0,0,0,0
1564762469812.5,-33.98,0,0,0,0,0
1564762469828.13,-43.28,0,0,0,0,0
1564762469843.75,-51.94,0,0,0,0,0
1564762469859.38,-58.41,0,0,0,0,0
1564762469875,-61.55,0,0,0,0,0
1564762469890.63,-60.98,0,0,0,0,0
1564762469906.25,-57.28,0,0,0,0,0
1564762469921.88,-51.64,0,0,0,0,0
1564762469937.5,-45.5,0,0,0,0,0
1564762469953.13,-39.94,0,0,0,0,0
1564762469968.75,-35.43,0,0,0,0,0
1564762469984.38,-31.89,0,0,0,0,0
1564762470000,-28.92,0,0,0,0,0
1564762470015.63,-26.12,0,0,0,0,0
1564762470031.25,-23.31,0,0,0,0,0
1564762470046.88,-20.6,0,0,0,0,0
1564762470062.5,-18.3,0,0,0,0,0
1564762470078.13,-16.88,0,0,0,0,0
1564762470093.75,-16.92,0,0,0,0,0
1564762470109.38,-19.07,0,0,0,0,0
1564762470125,-23.96,0,0,0,0,0
1564762470140.63,-31.92,0,0,0,0,0
1564762470156.25,-42.67,0,0,0,0,0
1564762470171.88,-55.02,0,0,0,0,0
1564762470187.5,-66.8,0,0,0,0,0
1564762470203.13,-75.23,0,0,0,0,0
1564762470218.75,-77.55,0,0,0,0,0
1564762470234.38,-71.88,0,0,0,0,0
1564762470250,-57.87,0,0,0,0,0
1564762470265.63,-36.9,0,0,0,0,0
1564762470281.25,-11.67,0,0,0,0,0
1564762470296.88,14.55,0,0,0,0,0
1564762470312.5,38.78,0,0,0,0,0
1564762470328.13,58.9,0,0,0,0,0
1564762470343.75,73.85,0,0,0,0,0
1564762470359.38,83.41,0,0,0,0,0
1564762470375,87.78,0,0,0,0,0
1564762470390.63,87.33,0,0,0,0,0
1564762470406.25,82.43,0,0,0,0,0
1564762470421.88,73.66,0,0,0,0,0
1564762470437.5,61.9,0,0,0,0,0
1564762470453.13,48.48,0,0,0,0,0
1564762470468.75,35.11,0,0,0,0,0
1564762470484.38,23.57,0,0,0,0,0
1564762470500,15.23,0,0,0,0,0
1564762470515.63,10.69,0,0,0,0,0
1564762470531.25,9.57,0,0,0,0,0
1564762470546.88,10.68,0,0,0,0,0
1564762470562.5,12.51,0,0,0,0,0
1564762470578.13,13.8,0,0,0,0,0
1564762470593.75,13.96,0,0,0,0,0
1564762470609.38,13.07,0,0,0,0,0
1564762470625,11.69,0,0,0,0,0
1564762470640.63,10.29,0,0,0,0,0
1564762470656.25,8.92,0,0,0,0,0
1564762470671.88,7.09,0,0,0,0,0
1564762470687.5,4.04,0,0,0,0,0
1564762470703.13,-1.04,0,0,0,0,0
1564762470718.75,-8.65,0,0,0,0,0
1564762470734.38,-18.88,0,0,0,0,0
1564762470750,-31.28,0,0,0,0,0
1564762470765.63,-44.8,0,0,0,0,0
1564762470781.25,-57.71,0,0,0,0,0
1564762470796.88,-67.75,0,0,0,0,0
1564762470812.5,-72.53,0,0,0,0,0
1564762470828.13,-70.24,0,0,0,0,0
1564762470843.75,-60.29,0,0,0,0,0
1564762470859.38,-43.6,0,0,0,0,0
1564762470875,-22.49,0,0,0,0,0
1564762470890.63,0.12,0,0,0,0,0
1564762470906.25,21.49,0,0,0,0,0
1564762470921.88,39.69,0,0,0,0,0
1564762470937.5,53.8,0,0,0,0,0
1564762470953.13,63.59,0,0,0,0,0
1564762470968.75,69.07,0,0,0,0,0
1564762470984.38,70.13,0,0,0,0,0
1564762471000,66.6,0,0,0,0,0
1564762471015.63,58.5,0,0,0,0,0
1564762471031.25,46.43,0,0,0,0,0
1564762471046.88,31.74,0,0,0,0,0
1564762471062.5,16.4,0,0,0,0,0
1564762471078.13,2.53,0,0,0,0,0
1564762471093.75,-8.14,0,0,0,0,0
1564762471109.38,-14.82,0,0,0,0,0
1564762471125,-17.77,0,0,0,0,0
1564762471140.63,-18.03,0,0,0,0,0
1564762471156.25,-16.97,0,0,0,0,0
1564762471171.88,-15.68,0,0,0,0,0
1564762471187.5,-14.76,0,0,0,0,0
1564762471203.13,-14.31,0,0,0,0,0
1564762471218.75,-14.26,0,0,0,0,0
1564762471234.38,-14.58,0,0,0,0,0
1564762471250,-15.47,0,0,0,0,0
1564762471265.63,-17.35,0,0,0,0,0
1564762471281.25,-20.67,0,0,0,0,0
1564762471296.88,-25.88,0,0,0,0,0
1564762471312.5,-33.33,0,0,0,0,0
1564762471328.13,-43.16,0,0,0,0,0
1564762471343.75,-55.02,0,0,0,0,0
1564762471359.38,-67.9,0,0,0,0,0
1564762471375,-79.91,0,0,0,0,0
1564762471390.63,-88.56,0,0,0,0,0
1564762471406.25,-91.4,0,0,0,0,0
1564762471421.88,-86.83,0,0,0,0,0
1564762471437.5,-74.78,0,0,0,0,0
1564762471453.13,-56.78,0,0,0,0,0
1564762471468.75,-35.45,0,0,0,0,0
1564762471484.38,-13.58,0,0,0,0,0
1564762471500,6.72,0,0,0,0,0
1564762471515.63,24.26,0,0,0,0,0
1564762471531.25,38.71,0,0,0,0,0
1564762471546.88,49.89,0,0,0,0,0
1564762471562.5,57.46,0,0,0,0,0
1564762471578.13,60.89,0,0,0,0,0
1564762471593.75,59.85,0,0,0,0,0
1564762471609.38,54.73,0,0,0,0,0
1564762471625,46.88,0,0,0,0,0
1564762471640.63,38.39,0,0,0,0,0
1564762471656.25,31.33,0,0,0,0,0
1564762471671.88,27.12,0,0,0,0,0
1564762471687.5,26.11,0,0,0,0,0
1564762471703.13,27.6,0,0,0,0,0
1564762471718.75,30.49,0,0,0,0,0
1564762471734.38,33.81,0,0,0,0,0
1564762471750,37.21,0,0,0,0,0
1564762471765.63,40.86,0,0,0,0,0
1564762471781.25,45.1,0,0,0,0,0
1564762471796.88,50.05,0,0,0,0,0
1564762471812.5,55.21,0,0,0,0,0
1564762471828.13,59.63,0,0,0,0,0
1564762471843.75,62.14,0,0,0,0,0
1564762471859.38,61.76,0,0,0,0,0
1564762471875,57.8,0,0,0,0,0
1564762471890.63,50.06,0,0,0,0,0
1564762471906.25,38.74,0,0,0,0,0
1564762471921.88,24.7,0,0,0,0,0
1564762471937.5,9.56,0,0,0,0,0
1564762471953.13,-4.31,0,0,0,0,0
1564762471968.75,-14.13,0,0,0,0,0
1564762471984.38,-17.56,0,0,0,0,0
1564762472000,-13.45,0,0,0,0,0
1564762472015.63,-2.4,0,0,0,0,0
1564762472031.25,13.44,0,0,0,0,0
1564762472046.88,31.07,0,0,0,0,0
1564762472062.5,47.62,0,0,0,0,0
1564762472078.13,61.05,0,0,0,0,0
1564762472093.75,70.4,0,0,0,0,0
1564762472109.38,75.41,0,0,0,0,0
1564762472125,76.14,0,0,0,0,0
1564762472140.63,72.73,0,0,0,0,0
1564762472156.25,65.42,0,0,0,0,0
1564762472171.88,54.86,0,0,0,0,0
1564762472187.5,42.3,0,0,0,0,0
1564762472203.13,29.48,0,0,0,0,0
1564762472218.75,18.26,0,0,0,0,0
1564762472234.38,10.08,0,0,0,0,0
1564762472250,5.58,0,0,0,0,0
1564762472265.63,4.48,0,0,0,0,0
1564762472281.25,5.83,0,0,0,0,0
1564762472296.88,8.4,0,0,0,0,0
1564762472312.5,11.18,0,0,0,0,0
1564762472328.13,13.64,0,0,0,0,0
1564762472343.75,15.75,0,0,0,0,0
1564762472359.38,17.77,0,0,0,0,0
1564762472375,19.89,0,0,0,0,0
1564762472390.63,21.93,0,0,0,0,0
1564762472406.25,23.22,0,0,0,0,0
1564762472421.88,22.79,0,0,0,0,0
1564762472437.5,19.6,0,0,0,0,0
1564762472453.13,12.96,0,0,0,0,0
1564762472468.75,2.9,0,0,0,0,0
1564762472484.38,-9.63,0,0,0,0,0
1564762472500,-22.75,0,0,0,0,0
1564762472515.63,-34.02,0,0,0,0,0
1564762472531.25,-40.99,0,0,0,0,0
1564762472546.88,-41.9,0,0,0,0,0
1564762472562.5,-36.22,0,0,0,0,0
1564762472578.13,-24.8,0,0,0,0,0
1564762472593.75,-9.5,0,0,0,0,0
1564762472609.38,7.43,0,0,0,0,0
1564762472625,24.05,0,0,0,0,0
1564762472640.63,39.04,0,0,0,0,0
1564762472656.25,51.56,0,0,0,0,0
1564762472671.88,60.9,0,0,0,0,0
1564762472687.5,66.17,0,0,0,0,0
1564762472703.13,66.39,0,0,0,0,0
1564762472718.75,60.89,0,0,0,0,0
1564762472734.38,49.92,0,0,0,0,0
1564762472750,34.72,0,0,0,0,0
1564762472765.63,17.31,0,0,0,0,0
1564762472781.25,-0.21,0,0,0,0,0
1564762472796.88,-16.25,0,0,0,0,0
1564762472812.5,-29.97,0,0,0,0,0
1564762472828.13,-41.07,0,0,0,0,0
1564762472843.75,-49.35,0,0,0,0,0
1564762472859.38,-54.47,0,0,0,0,0
1564762472875,-55.97,0,0,0,0,0
1564762472890.63,-53.63,0,0,0,0,0
1564762472906.25,-47.75,0,0,0,0,0
1564762472921.88,-39.18,0,0,0,0,0
1564762472937.5,-29.04,0,0,0,0,0
1564762472953.13,-18.48,0,0,0,0,0
1564762472968.75,-8.68,0,0,0,0,0
1564762472984.38,-1,0,0,0,0,0
1564762473000,2.9,0,0,0,0,0
1564762473015.63,1.39,0,0,0,0,0
1564762473031.25,-6.33,0,0,0,0,0
1564762473046.88,-19.27,0,0,0,0,0
1564762473062.5,-34.15,0,0,0,0,0
1564762473078.13,-46,0,0,0,0,0
1564762473093.75,-49.57,0,0,0,0,0
1564762473109.38,-41.17,0,0,0,0,0
1564762473125,-19.96,0,0,0,0,0
1564762473140.63,11.87,0,0,0,0,0
1564762473156.25,50.14,0,0,0,0,0
1564762473171.88,90.27,0,0,0,0,0
1564762473187.5,128.57,0,0,0,0,0
1564762473203.13,162.88,0,0,0,0,0
1564762473218.75,192.41,0,0,0,0,0
1564762473234.38,217.14,0,0,0,0,0
1564762473250,237.22,0,0,0,0,0
1564762473265.63,252.71,0,0,0,0,0
1564762473281.25,263.73,0,0,0,0,0
1564762473296.88,270.74,0,0,0,0,0
1564762473312.5,274.6,0,0,0,0,0
1564762473328.13,276.47,0,0,0,0,0
1564762473343.75,277.36,0,0,0,0,0
1564762473359.38,277.53,0,0,0,0,0
1564762473375,276.32,0,0,0,0,0
1564762473390.63,272.22,0,0,0,0,0
1564762473406.25,263.5,0,0,0,0,0
1564762473421.88,249.11,0,0,0,0,0
1564762473437.5,229.3,0,0,0,0,0
1564762473453.13,205.76,0,0,0,0,0
1564762473468.75,181.06,0,0,0,0,0
1564762473484.38,157.67,0,0,0,0,0
1564762473500,137.08,0,0,0,0,0
1564762473515.63,119.44,0,0,0,0,0
1564762473531.25,103.9,0,0,0,0,0
1564762473546.88,89.35,0,0,0,0,0
1564762473562.5,74.94,0,0,0,0,0
1564762473578.13,60.14,0,0,0,0,0
1564762473593.75,44.37,0,0,0,0,0
1564762473609.38,26.62,0,0,0,0,0
1564762473625,5.65,0,0,0,0,0
1564762473640.63,-19.42,0,0,0,0,0
1564762473656.25,-48.26,0,0,0,0,0
1564762473671.88,-78.87,0,0,0,0,0
1564762473687.5,-108.1,0,0,0,0,0
1564762473703.13,-132.69,0,0,0,0,0
1564762473718.75,-150.48,0,0,0,0,0
1564762473734.38,-161.09,0,0,0,0,0
1564762473750,-165.73,0,0,0,0,0
1564762473765.63,-166.3,0,0,0,0,0
1564762473781.25,-164.5,0,0,0,0,0
1564762473796.88,-161.13,0,0,0,0,0
1564762473812.5,-156.2,0,0,0,0,0
1564762473828.13,-149.34,0,0,0,0,0
1564762473843.75,-140.35,0,0,0,0,0
1564762473859.38,-129.5,0,0,0,0,0
1564762473875,-117.43,0,0,0,0,0
1564762473890.63,-104.91,0,0,0,0,0
1564762473906.25,-92.56,0,0,0,0,0
1564762473921.88,-80.66,0,0,0,0,0
1564762473937.5,-69.11,0,0,0,0,0
1564762473953.13,-57.58,0,0,0,0,0
1564762473968.75,-45.85,0,0,0,0,0
1564762473984.38,-33.99,0,0,0,0,0
1564762474000,-22.51,0,0,0,0,0
1564762474015.63,-12.25,0,0,0,0,0
1564762474031.25,-4.06,0,0,0,0,0
1564762474046.88,1.47,0,0,0,0,0
1564762474062.5,4.11,0,0,0,0,0
1564762474078.13,4.05,0,0,0,0,0
1564762474093.75,1.75,0,0,0,0,0
1564762474109.38,-2.22,0,0,0,0,0
1564762474125,-7.06,0,0,0,0,0
1564762474140.63,-11.9,0,0,0,0,0
1564762474156.25,-15.79,0,0,0,0,0
1564762474171.88,-17.95,0,0,0,0,0
1564762474187.5,-18.01,0,0,0,0,0
1564762474203.13,-16.08,0,0,0,0,0
1564762474218.75,-12.71,0,0,0,0,0
1564762474234.38,-8.59,0,0,0,0,0
1564762474250,-4.38,0,0,0,0,0
1564762474265.63,-0.66,0,0,0,0,0
1564762474281.25,1.83,0,0,0,0,0
1564762474296.88,2.11,0,0,0,0,0
1564762474312.5,-0.93,0,0,0,0,0
1564762474328.13,-8.1,0,0,0,0,0
1564762474343.75,-19.49,0,0,0,0,0
1564762474359.38,-34.28,0,0,0,0,0
1564762474375,-50.95,0,0,0,0,0
1564762474390.63,-67.78,0,0,0,0,0
1564762474406.25,-83.32,0,0,0,0,0
1564762474421.88,-96.58,0,0,0,0,0
1564762474437.5,-106.91,0,0,0,0,0
1564762474453.13,-113.72,0,0,0,0,0
1564762474468.75,-116.43,0,0,0,0,0
1564762474484.38,-114.78,0,0,0,0,0
1564762474500,-109.28,0,0,0,0,0
1564762474515.63,-101.36,0,0,0,0,0
1564762474531.25,-93.19,0,0,0,0,0
1564762474546.88,-86.9,0,0,0,0,0
1564762474562.5,-83.88,0,0,0,0,0
1564762474578.13,-84.31,0,0,0,0,0
1564762474593.75,-87.27,0,0,0,0,0
1564762474609.38,-91.41,0,0,0,0,0
1564762474625,-95.57,0,0,0,0,0
1564762474640.63,-99.26,0,0,0,0,0
1564762474656.25,-102.56,0,0,0,0,0
1564762474671.88,-105.85,0,0,0,0,0
1564762474687.5,-109.25,0,0,0,0,0
1564762474703.13,-112.27,0,0,0,0,0
1564762474718.75,-113.88,0,0,0,0,0
1564762474734.38,-112.79,0,0,0,0,0
1564762474750,-107.92,0,0,0,0,0
1564762474765.63,-98.89,0,0,0,0,0
1564762474781.25,-86.13,0,0,0,0,0
1564762474796.88,-70.75,0,0,0,0,0
1564762474812.5,-54.2,0,0,0,0,0
1564762474828.13,-37.76,0,0,0,0,0
1564762474843.75,-22.3,0,0,0,0,0
1564762474859.38,-8.34,0,0,0,0,0
1564762474875,3.73,0,0,0,0,0
1564762474890.63,13.4,0,0,0,0,0
1564762474906.25,20.01,0,0,0,0,0
1564762474921.88,23.06,0,0,0,0,0
1564762474937.5,22.58,0,0,0,0,0
1564762474953.13,19.35,0,0,0,0,0
1564762474968.75,14.72,0,0,0,0,0
1564762474984.38,10.14,0,0,0,0,0
1564762475000,6.6,0,0,0,0,0
1564762475015.63,4.25,0,0,0,0,0
1564762475031.25,2.61,0,0,0,0,0
1564762475046.88,0.9,0,0,0,0,0
1564762475062.5,-1.4,0,0,0,0,0
1564762475078.13,-4.4,0,0,0,0,0
1564762475093.75,-7.75,0,0,0,0,0
1564762475109.38,-11.02,0,0,0,0,0
1564762475125,-13.96,0,0,0,0,0
1564762475140.63,-16.68,0,0,0,0,0
1564762475156.25,-19.62,0,0,0,0,0
1564762475171.88,-23.42,0,0,0,0,0
1564762475187.5,-28.68,0,0,0,0,0
1564762475203.13,-35.79,0,0,0,0,0
1564762475218.75,-44.69,0,0,0,0,0
1564762475234.38,-54.79,0,0,0,0,0
1564762475250,-64.72,0,0,0,0,0
1564762475265.63,-72.58,0,0,0,0,0
1564762475281.25,-76.28,0,0,0,0,0
1564762475296.88,-74.26,0,0,0,0,0
1564762475312.5,-66.05,0,0,0,0,0
1564762475328.13,-52.59,0,0,0,0,0
1564762475343.75,-35.98,0,0,0,0,0
1564762475359.38,-18.84,0,0,0,0,0
1564762475375,-3.5,0,0,0,0,0
1564762475390.63,8.55,0,0,0,0,0
1564762475406.25,16.81,0,0,0,0,0
1564762475421.88,21.54,0,0,0,0,0
1564762475437.5,23.37,0,0,0,0,0
1564762475453.13,22.94,0,0,0,0,0
1564762475468.75,20.75,0,0,0,0,0
1564762475484.38,17.18,0,0,0,0,0
1564762475500,12.54,0,0,0,0,0
1564762475515.63,7.14,0,0,0,0,0
1564762475531.25,1.31,0,0,0,0,0
1564762475546.88,-4.62,0,0,0,0,0
1564762475562.5,-10.26,0,0,0,0,0
1564762475578.13,-15.15,0,0,0,0,0
1564762475593.75,-18.85,0,0,0,0,0
1564762475609.38,-20.95,0,0,0,0,0
1564762475625,-21.22,0,0,0,0,0
1564762475640.63,-19.82,0,0,0,0,0
1564762475656.25,-17.26,0,0,0,0,0
1564762475671.88,-14.5,0,0,0,0,0
1564762475687.5,-12.76,0,0,0,0,0
1564762475703.13,-13.32,0,0,0,0,0
1564762475718.75,-17.1,0,0,0,0,0
1564762475734.38,-24.21,0,0,0,0,0
1564762475750,-33.7,0,0,0,0,0
1564762475765.63,-43.56,0,0,0,0,0
1564762475781.25,-51.21,0,0,0,0,0
1564762475796.88,-54.16,0,0,0,0,0
1564762475812.5,-50.79,0,0,0,0,0
1564762475828.13,-40.75,0,0,0,0,0
1564762475843.75,-24.89,0,0,0,0,0
1564762475859.38,-4.97,0,0,0,0,0
1564762475875,16.85,0,0,0,0,0
1564762475890.63,38.43,0,0,0,0,0
1564762475906.25,57.87,0,0,0,0,0
1564762475921.88,73.65,0,0,0,0,0
1564762475937.5,84.76,0,0,0,0,0
1564762475953.13,90.69,0,0,0,0,0
1564762475968.75,91.41,0,0,0,0,0
1564762475984.38,87.11,0,0,0,0,0
1564762476000,78.06,0,0,0,0,0
1564762476015.63,64.53,0,0,0,0,0
1564762476031.25,47.01,0,0,0,0,0
1564762476046.88,26.44,0,0,0,0,0
1564762476062.5,4.44,0,0,0,0,0
1564762476078.13,-16.75,0,0,0,0,0
1564762476093.75,-34.83,0,0,0,0,0
1564762476109.38,-47.99,0,0,0,0,0
1564762476125,-55.46,0,0,0,0,0
1564762476140.63,-57.63,0,0,0,0,0
1564762476156.25,-55.66,0,0,0,0,0
1564762476171.88,-51.08,0,0,0,0,0
1564762476187.5,-45.33,0,0,0,0,0
1564762476203.13,-39.64,0,0,0,0,0
1564762476218.75,-34.98,0,0,0,0,0
1564762476234.38,-32.2,0,0,0,0,0
1564762476250,-31.95,0,0,0,0,0
1564762476265.63,-34.53,0,0,0,0,0
1564762476281.25,-39.59,0,0,0,0,0
1564762476296.88,-45.93,0,0,0,0,0
1564762476312.5,-51.45,0,0,0,0,0
1564762476328.13,-53.61,0,0,0,0,0
1564762476343.75,-50.02,0,0,0,0,0
1564762476359.38,-39.26,0,0,0,0,0
1564762476375,-21.27,0,0,0,0,0
1564762476390.63,2.56,0,0,0,0,0
1564762476406.25,30,0,0,0,0,0
1564762476421.88,58.58,0,0,0,0,0
1564762476437.5,86.25,0,0,0,0,0
1564762476453.13,111.64,0,0,0,0,0
1564762476468.75,134,0,0,0,0,0
1564762476484.38,152.9,0,0,0,0,0
1564762476500,168.04,0,0,0,0,0
1564762476515.63,179.04,0,0,0,0,0
1564762476531.25,185.6,0,0,0,0,0
1564762476546.88,187.71,0,0,0,0,0
1564762476562.5,185.68,0,0,0,0,0
1564762476578.13,180.27,0,0,0,0,0
1564762476593.75,172.49,0,0,0,0,0
1564762476609.38,163.45,0,0,0,0,0
1564762476625,154.01,0,0,0,0,0
1564762476640.63,144.6,0,0,0,0,0
1564762476656.25,135.11,0,0,0,0,0
1564762476671.88,125.06,0,0,0,0,0
1564762476687.5,113.94,0,0,0,0,0
1564762476703.13,101.55,0,0,0,0,0
1564762476718.75,88.07,0,0,0,0,0
1564762476734.38,73.98,0,0,0,0,0
1564762476750,59.71,0,0,0,0,0
1564762476765.63,45.41,0,0,0,0,0
1564762476781.25,30.87,0,0,0,0,0
1564762476796.88,15.8,0,0,0,0,0
1564762476812.5,0.22,0,0,0,0,0
1564762476828.13,-15.28,0,0,0,0,0
1564762476843.75,-29.38,0,0,0,0,0
1564762476859.38,-40.21,0,0,0,0,0
1564762476875,-45.87,0,0,0,0,0
1564762476890.63,-44.99,0,0,0,0,0
1564762476906.25,-37.2,0,0,0,0,0
1564762476921.88,-23.38,0,0,0,0,0
1564762476937.5,-5.33,0,0,0,0,0
1564762476953.13,14.69,0,0,0,0,0
1564762476968.75,34.74,0,0,0,0,0
1564762476984.38,53.56,0,0,0,0,0
1564762477000,70.78,0,0,0,0,0
1564762477015.63,86.66,0,0,0,0,0
1564762477031.25,101.55,0,0,0,0,0
1564762477046.88,115.53,0,0,0,0,0
1564762477062.5,128.05,0,0,0,0,0
1564762477078.13,138.03,0,0,0,0,0
1564762477093.75,144.13,0,0,0,0,0
1564762477109.38,145.12,0,0,0,0,0
1564762477125,140.38,0,0,0,0,0
1564762477140.63,130.07,0,0,0,0,0
1564762477156.25,115.25,0,0,0,0,0
1564762477171.88,97.43,0,0,0,0,0
1564762477187.5,78.24,0,0,0,0,0
1564762477203.13,58.93,0,0,0,0,0
1564762477218.75,40.21,0,0,0,0,0
1564762477234.38,22.4,0,0,0,0,0
1564762477250,5.68,0,0,0,0,0
1564762477265.63,-9.62,0,0,0,0,0
1564762477281.25,-23.04,0,0,0,0,0
1564762477296.88,-34.17,0,0,0,0,0
1564762477312.5,-43,0,0,0,0,0
1564762477328.13,-50.1,0,0,0,0,0
1564762477343.75,-56.5,0,0,0,0,0
1564762477359.38,-63.31,0,0,0,0,0
1564762477375,-71.14,0,0,0,0,0
1564762477390.63,-79.61,0,0,0,0,0
1564762477406.25,-87.24,0,0,0,0,0
1564762477421.88,-91.82,0,0,0,0,0
1564762477437.5,-91.2,0,0,0,0,0
1564762477453.13,-84.19,0,0,0,0,0
1564762477468.75,-71.13,0,0,0,0,0
1564762477484.38,-53.85,0,0,0,0,0
1564762477500,-34.96,0,0,0,0,0
1564762477515.63,-17,0,0,0,0,0
1564762477531.25,-1.66,0,0,0,0,0
1564762477546.88,10.46,0,0,0,0,0
1564762477562.5,19.44,0,0,0,0,0
1564762477578.13,25.5,0,0,0,0,0
1564762477593.75,28.57,0,0,0,0,0
1564762477609.38,28.3,0,0,0,0,0
1564762477625,24.46,0,0,0,0,0
1564762477640.63,17.36,0,0,0,0,0
1564762477656.25,7.93,0,0,0,0,0
1564762477671.88,-2.43,0,0,0,0,0
1564762477687.5,-12.39,0,0,0,0,0
1564762477703.13,-21.1,0,0,0,0,0
1564762477718.75,-28.38,0,0,0,0,0
1564762477734.38,-34.46,0,0,0,0,0
1564762477750,-39.69,0,0,0,0,0
1564762477765.63,-44.16,0,0,0,0,0
1564762477781.25,-47.71,0,0,0,0,0
1564762477796.88,-50.09,0,0,0,0,0
1564762477812.5,-51.19,0,0,0,0,0
1564762477828.13,-51.31,0,0,0,0,0
1564762477843.75,-51.04,0,0,0,0,0
1564762477859.38,-51.23,0,0,0,0,0
1564762477875,-52.7,0,0,0,0,0
1564762477890.63,-55.97,0,0,0,0,0
1564762477906.25,-61.1,0,0,0,0,0
1564762477921.88,-67.48,0,0,0,0,0
1564762477937.5,-73.77,0,0,0,0,0
1564762477953.13,-78.09,0,0,0,0,0
1564762477968.75,-78.5,0,0,0,0,0
1564762477984.38,-73.6,0,0,0,0,0
1564762478000,-63,0,0,0,0,0
1564762478015.63,-47.58,0,0,0,0,0
1564762478031.25,-29.19,0,0,0,0,0
1564762478046.88,-10.12,0,0,0,0,0
1564762478062.5,7.59,0,0,0,0,0
1564762478078.13,22.55,0,0,0,0,0
1564762478093.75,34.01,0,0,0,0,0
1564762478109.38,41.77,0,0,0,0,0
1564762478125,45.81,0,0,0,0,0
1564762478140.63,46.28,0,0,0,0,0
1564762478156.25,43.48,0,0,0,0,0
1564762478171.88,38.02,0,0,0,0,0
1564762478187.5,30.87,0,0,0,0,0
1564762478203.13,23.13,0,0,0,0,0
1564762478218.75,15.75,0,0,0,0,0
1564762478234.38,9.23,0,0,0,0,0
1564762478250,3.64,0,0,0,0,0
1564762478265.63,-1.33,0,0,0,0,0
1564762478281.25,-5.92,0,0,0,0,0
1564762478296.88,-10.19,0,0,0,0,0
1564762478312.5,-13.84,0,0,0,0,0
1564762478328.13,-16.51,0,0,0,0,0
1564762478343.75,-17.96,0,0,0,0,0
1564762478359.38,-18.4,0,0,0,0,0
1564762478375,-18.45,0,0,0,0,0
1564762478390.63,-19,0,0,0,0,0
1564762478406.25,-20.94,0,0,0,0,0
1564762478421.88,-24.91,0,0,0,0,0
1564762478437.5,-31.05,0,0,0,0,0
1564762478453.13,-38.88,0,0,0,0,0
1564762478468.75,-47.15,0,0,0,0,0
1564762478484.38,-54.05,0,0,0,0,0
1564762478500,-57.52,0,0,0,0,0
1564762478515.63,-55.8,0,0,0,0,0
1564762478531.25,-48.07,0,0,0,0,0
1564762478546.88,-34.76,0,0,0,0,0
1564762478562.5,-17.5,0,0,0,0,0
1564762478578.13,1.38,0,0,0,0,0
1564762478593.75,19.56,0,0,0,0,0
1564762478609.38,35.33,0,0,0,0,0
1564762478625,47.76,0,0,0,0,0
1564762478640.63,56.65,0,0,0,0,0
1564762478656.25,62.13,0,0,0,0,0
1564762478671.88,64.38,0,0,0,0,0
1564762478687.5,63.63,0,0,0,0,0
1564762478703.13,60.24,0,0,0,0,0
1564762478718.75,54.82,0,0,0,0,0
1564762478734.38,48.23,0,0,0,0,0
1564762478750,41.38,0,0,0,0,0
1564762478765.63,35,0,0,0,0,0
1564762478781.25,29.46,0,0,0,0,0
1564762478796.88,24.72,0,0,0,0,0
1564762478812.5,20.5,0,0,0,0,0
1564762478828.13,16.54,0,0,0,0,0
1564762478843.75,12.76,0,0,0,0,0
1564762478859.38,9.32,0,0,0,0,0
1564762478875,6.55,0,0,0,0,0
1564762478890.63,4.69,0,0,0,0,0
1564762478906.25,3.76,0,0,0,0,0
1564762478921.88,3.41,0,0,0,0,0
1564762478937.5,2.96,0,0,0,0,0
1564762478953.13,1.54,0,0,0,0,0
1564762478968.75,-1.55,0,0,0,0,0
1564762478984.38,-6.66,0,0,0,0,0
1564762479000,-13.49,0,0,0,0,0
1564762479015.63,-20.9,0,0,0,0,0
1564762479031.25,-27.13,0,0,0,0,0
1564762479046.88,-30.09,0,0,0,0,0
1564762479062.5,-27.98,0,0,0,0,0
1564762479078.13,-19.96,0,0,0,0,0
1564762479093.75,-6.55,0,0,0,0,0
1564762479109.38,10.35,0,0,0,0,0
1564762479125,27.85,0,0,0,0,0
1564762479140.63,42.92,0,0,0,0,0
1564762479156.25,53.06,0,0,0,0,0
1564762479171.88,56.88,0,0,0,0,0
1564762479187.5,54.15,0,0,0,0,0
1564762479203.13,45.54,0,0,0,0,0
1564762479218.75,32.27,0,0,0,0,0
1564762479234.38,15.79,0,0,0,0,0
1564762479250,-2.34,0,0,0,0,0
1564762479265.63,-20.4,0,0,0,0,0
1564762479281.25,-36.62,0,0,0,0,0
1564762479296.88,-49.39,0,0,0,0,0
1564762479312.5,-57.7,0,0,0,0,0
1564762479328.13,-61.44,0,0,0,0,0
1564762479343.75,-61.43,0,0,0,0,0
1564762479359.38,-59.03,0,0,0,0,0
1564762479375,-55.47,0,0,0,0,0
1564762479390.63,-51.24,0,0,0,0,0
1564762479406.25,-45.85,0,0,0,0,0
1564762479421.88,-38.24,0,0,0,0,0
1564762479437.5,-27.43,0,0,0,0,0
1564762479453.13,-13.31,0,0,0,0,0
1564762479468.75,3.15,0,0,0,0,0
1564762479484.38,20.1,0,0,0,0,0
1564762479500,35.51,0,0,0,0,0
1564762479515.63,47.98,0,0,0,0,0
1564762479531.25,57.15,0,0,0,0,0
1564762479546.88,63.81,0,0,0,0,0
1564762479562.5,69.48,0,0,0,0,0
1564762479578.13,75.84,0,0,0,0,0
1564762479593.75,84.05,0,0,0,0,0
1564762479609.38,94.42,0,0,0,0,0
1564762479625,106.24,0,0,0,0,0
1564762479640.63,118.11,0,0,0,0,0
1564762479656.25,128.39,0,0,0,0,0
1564762479671.88,135.75,0,0,0,0,0
1564762479687.5,139.55,0,0,0,0,0
1564762479703.13,139.77,0,0,0,0,0
1564762479718.75,136.78,0,0,0,0,0
1564762479734.38,130.97,0,0,0,0,0
1564762479750,122.58,0,0,0,0,0
1564762479765.63,111.77,0,0,0,0,0
1564762479781.25,98.9,0,0,0,0,0
1564762479796.88,84.68,0,0,0,0,0
1564762479812.5,70.01,0,0,0,0,0
1564762479828.13,55.78,0,0,0,0,0
1564762479843.75,42.65,0,0,0,0,0
1564762479859.38,31,0,0,0,0,0
1564762479875,21.12,0,0,0,0,0
1564762479890.63,13.48,0,0,0,0,0
1564762479906.25,8.5,0,0,0,0,0
1564762479921.88,6.16,0,0,0,0,0
1564762479937.5,5.59,0,0,0,0,0
1564762479953.13,4.91,0,0,0,0,0
1564762479968.75,1.87,0,0,0,0,0
1564762479984.38,-5.29,0,0,0,0,0
1564762480000,-17.07,0,0,0,0,0
1564762480015.63,-32.56,0,0,0,0,0
1564762480031.25,-50.12,0,0,0,0,0
1564762480046.88,-68.28,0,0,0,0,0
1564762480062.5,-86.33,0,0,0,0,0
1564762480078.13,-104.01,0,0,0,0,0
1564762480093.75,-120.78,0,0,0,0,0
1564762480109.38,-134.98,0,0,0,0,0
1564762480125,-143.92,0,0,0,0,0
1564762480140.63,-144.79,0,0,0,0,0
1564762480156.25,-136.09,0,0,0,0,0
1564762480171.88,-118.61,0,0,0,0,0
1564762480187.5,-95.34,0,0,0,0,0
1564762480203.13,-70.38,0,0,0,0,0
1564762480218.75,-47.41,0,0,0,0,0
1564762480234.38,-28.58,0,0,0,0,0
1564762480250,-14.47,0,0,0,0,0
1564762480265.63,-4.64,0,0,0,0,0
1564762480281.25,1.39,0,0,0,0,0
1564762480296.88,3.71,0,0,0,0,0
1564762480312.5,2.11,0,0,0,0,0
1564762480328.13,-3.35,0,0,0,0,0
1564762480343.75,-11.86,0,0,0,0,0
1564762480359.38,-21.83,0,0,0,0,0
1564762480375,-31.3,0,0,0,0,0
1564762480390.63,-38.71,0,0,0,0,0
1564762480406.25,-43.36,0,0,0,0,0
1564762480421.88,-45.53,0,0,0,0,0
1564762480437.5,-46.1,0,0,0,0,0
1564762480453.13,-46.08,0,0,0,0,0
1564762480468.75,-46.12,0,0,0,0,0
1564762480484.38,-46.41,0,0,0,0,0
1564762480500,-46.82,0,0,0,0,0
1564762480515.63,-47.19,0,0,0,0,0
1564762480531.25,-47.58,0,0,0,0,0
1564762480546.88,-48.33,0,0,0,0,0
1564762480562.5,-50.09,0,0,0,0,0
1564762480578.13,-53.49,0,0,0,0,0
1564762480593.75,-58.96,0,0,0,0,0
1564762480609.38,-66.24,0,0,0,0,0
1564762480625,-74.28,0,0,0,0,0
1564762480640.63,-81.18,0,0,0,0,0
1564762480656.25,-84.72,0,0,0,0,0
1564762480671.88,-83.11,0,0,0,0,0
1564762480687.5,-75.64,0,0,0,0,0
1564762480703.13,-63.11,0,0,0,0,0
1564762480718.75,-47.49,0,0,0,0,0
1564762480734.38,-31.21,0,0,0,0,0
1564762480750,-16.31,0,0,0,0,0
1564762480765.63,-3.9,0,0,0,0,0
1564762480781.25,5.81,0,0,0,0,0
1564762480796.88,13.12,0,0,0,0,0
1564762480812.5,18.33,0,0,0,0,0
1564762480828.13,21.36,0,0,0,0,0
1564762480843.75,21.87,0,0,0,0,0
1564762480859.38,19.53,0,0,0,0,0
1564762480875,14.38,0,0,0,0,0
1564762480890.63,7.04,0,0,0,0,0
1564762480906.25,-1.42,0,0,0,0,0
1564762480921.88,-9.71,0,0,0,0,0
1564762480937.5,-16.69,0,0,0,0,0
1564762480953.13,-21.67,0,0,0,0,0
1564762480968.75,-24.52,0,0,0,0,0
1564762480984.38,-25.61,0,0,0,0,0
1564762481000,-25.62,0,0,0,0,0
1564762481015.63,-25.21,0,0,0,0,0
1564762481031.25,-24.82,0,0,0,0,0
1564762481046.88,-24.51,0,0,0,0,0
1564762481062.5,-24.22,0,0,0,0,0
1564762481078.13,-23.87,0,0,0,0,0
1564762481093.75,-23.77,0,0,0,0,0
1564762481109.38,-24.62,0,0,0,0,0
1564762481125,-27.35,0,0,0,0,0
1564762481140.63,-32.81,0,0,0,0,0
1564762481156.25,-41.19,0,0,0,0,0
1564762481171.88,-51.74,0,0,0,0,0
1564762481187.5,-62.67,0,0,0,0,0
1564762481203.13,-71.49,0,0,0,0,0
1564762481218.75,-75.67,0,0,0,0,0
1564762481234.38,-73.3,0,0,0,0,0
1564762481250,-63.62,0,0,0,0,0
1564762481265.63,-47.29,0,0,0,0,0
1564762481281.25,-26.21,0,0,0,0,0
1564762481296.88,-3.11,0,0,0,0,0
1564762481312.5,18.92,0,0,0,0,0
1564762481328.13,37.11,0,0,0,0,0
1564762481343.75,49.52,0,0,0,0,0
1564762481359.38,55.37,0,0,0,0,0
1564762481375,55.11,0,0,0,0,0
1564762481390.63,50.27,0,0,0,0,0
1564762481406.25,42.86,0,0,0,0,0
1564762481421.88,34.74,0,0,0,0,0
1564762481437.5,27.14,0,0,0,0,0
1564762481453.13,20.42,0,0,0,0,0
1564762481468.75,14.28,0,0,0,0,0
1564762481484.38,8.25,0,0,0,0,0
1564762481500,2.12,0,0,0,0,0
1564762481515.63,-3.82,0,0,0,0,0
1564762481531.25,-8.98,0,0,0,0,0
1564762481546.88,-12.83,0,0,0,0,0
1564762481562.5,-15.34,0,0,0,0,0
1564762481578.13,-17.1,0,0,0,0,0
1564762481593.75,-19.07,0,0,0,0,0
1564762481609.38,-22.3,0,0,0,0,0
1564762481625,-27.5,0,0,0,0,0
1564762481640.63,-34.95,0,0,0,0,0
1564762481656.25,-44.5,0,0,0,0,0
1564762481671.88,-55.62,0,0,0,0,0
1564762481687.5,-67.29,0,0,0,0,0
1564762481703.13,-78.02,0,0,0,0,0
1564762481718.75,-85.85,0,0,0,0,0
1564762481734.38,-88.73,0,0,0,0,0
1564762481750,-85.19,0,0,0,0,0
1564762481765.63,-74.8,0,0,0,0,0
1564762481781.25,-58.51,0,0,0,0,0
1564762481796.88,-38.38,0,0,0,0,0
1564762481812.5,-17.04,0,0,0,0,0
1564762481828.13,3.01,0,0,0,0,0
1564762481843.75,19.91,0,0,0,0,0
1564762481859.38,32.6,0,0,0,0,0
1564762481875,40.67,0,0,0,0,0
1564762481890.63,44.19,0,0,0,0,0
1564762481906.25,43.49,0,0,0,0,0
1564762481921.88,39.1,0,0,0,0,0
1564762481937.5,31.68,0,0,0,0,0
1564762481953.13,22.09,0,0,0,0,0
1564762481968.75,11.26,0,0,0,0,0
1564762481984.38,0.09,0,0,0,0,0
1564762482000,-10.62,0,0,0,0,0
1564762482015.63,-20.27,0,0,0,0,0
1564762482031.25,-28.45,0,0,0,0,0
1564762482046.88,-34.87,0,0,0,0,0
1564762482062.5,-39.26,0,0,0,0,0
1564762482078.13,-41.42,0,0,0,0,0
1564762482093.75,-41.26,0,0,0,0,0
1564762482109.38,-39,0,0,0,0,0
1564762482125,-35.22,0,0,0,0,0
1564762482140.63,-30.94,0,0,0,0,0
1564762482156.25,-27.42,0,0,0,0,0
1564762482171.88,-25.98,0,0,0,0,0
1564762482187.5,-27.62,0,0,0,0,0
1564762482203.13,-32.83,0,0,0,0,0
1564762482218.75,-41.29,0,0,0,0,0
1564762482234.38,-51.69,0,0,0,0,0
1564762482250,-61.8,0,0,0,0,0
1564762482265.63,-68.83,0,0,0,0,0
1564762482281.25,-70.18,0,0,0,0,0
1564762482296.88,-64.26,0,0,0,0,0
1564762482312.5,-50.99,0,0,0,0,0
1564762482328.13,-31.83,0,0,0,0,0
1564762482343.75,-9.3,0,0,0,0,0
1564762482359.38,13.86,0,0,0,0,0
1564762482375,35.32,0,0,0,0,0
1564762482390.63,53.52,0,0,0,0,0
1564762482406.25,67.52,0,0,0,0,0
1564762482421.88,76.79,0,0,0,0,0
1564762482437.5,80.99,0,0,0,0,0
1564762482453.13,80.04,0,0,0,0,0
1564762482468.75,74.22,0,0,0,0,0
1564762482484.38,64.36,0,0,0,0,0
1564762482500,51.73,0,0,0,0,0
1564762482515.63,37.78,0,0,0,0,0
1564762482531.25,23.93,0,0,0,0,0
1564762482546.88,11.2,0,0,0,0,0
1564762482562.5,0.28,0,0,0,0,0
1564762482578.13,-8.52,0,0,0,0,0
1564762482593.75,-15.09,0,0,0,0,0
1564762482609.38,-19.45,0,0,0,0,0
1564762482625,-21.68,0,0,0,0,0
1564762482640.63,-21.99,0,0,0,0,0
1564762482656.25,-20.83,0,0,0,0,0
1564762482671.88,-18.88,0,0,0,0,0
1564762482687.5,-17.1,0,0,0,0,0
1564762482703.13,-16.59,0,0,0,0,0
1564762482718.75,-18.41,0,0,0,0,0
1564762482734.38,-23.38,0,0,0,0,0
1564762482750,-31.72,0,0,0,0,0
1564762482765.63,-42.77,0,0,0,0,0
1564762482781.25,-54.71,0,0,0,0,0
1564762482796.88,-64.74,0,0,0,0,0
1564762482812.5,-69.64,0,0,0,0,0
1564762482828.13,-66.72,0,0,0,0,0
1564762482843.75,-54.82,0,0,0,0,0
1564762482859.38,-34.74,0,0,0,0,0
1564762482875,-9.2,0,0,0,0,0
1564762482890.63,18.08,0,0,0,0,0
1564762482906.25,43.53,0,0,0,0,0
1564762482921.88,64.53,0,0,0,0,0
1564762482937.5,79.84,0,0,0,0,0
1564762482953.13,89.24,0,0,0,0,0
1564762482968.75,93.01,0,0,0,0,0
1564762482984.38,91.5,0,0,0,0,0
1564762483000,85.01,0,0,0,0,0
1564762483015.63,73.98,0,0,0,0,0
1564762483031.25,59.34,0,0,0,0,0
1564762483046.88,42.52,0,0,0,0,0
1564762483062.5,25.23,0,0,0,0,0
1564762483078.13,9.08,0,0,0,0,0
1564762483093.75,-4.82,0,0,0,0,0
1564762483109.38,-15.92,0,0,0,0,0
1564762483125,-24.22,0,0,0,0,0
1564762483140.63,-29.88,0,0,0,0,0
1564762483156.25,-33.13,0,0,0,0,0
1564762483171.88,-34.16,0,0,0,0,0
1564762483187.5,-33.27,0,0,0,0,0
1564762483203.13,-31.1,0,0,0,0,0
1564762483218.75,-28.64,0,0,0,0,0
1564762483234.38,-27.19,0,0,0,0,0
1564762483250,-28.1,0,0,0,0,0
1564762483265.63,-32.49,0,0,0,0,0
1564762483281.25,-40.75,0,0,0,0,0
1564762483296.88,-52.27,0,0,0,0,0
1564762483312.5,-65.24,0,0,0,0,0
1564762483328.13,-76.8,0,0,0,0,0
1564762483343.75,-83.7,0,0,0,0,0
1564762483359.38,-83.21,0,0,0,0,0
1564762483375,-74.04,0,0,0,0,0
1564762483390.63,-56.79,0,0,0,0,0
1564762483406.25,-33.79,0,0,0,0,0
1564762483421.88,-8.27,0,0,0,0,0
1564762483437.5,16.57,0,0,0,0,0
