Timestamp,BVP,Note,AGG,ED,SIB,Condition
1562684273000,-0,0,0,0,0,0
1562684273015.63,-0,0,0,0,0,0
1562684273031.25,-0,0,0,0,0,0
1562684273046.88,-0,0,0,0,0,0
1562684273062.5,-0,0,0,0,0,0
1562684273078.13,-0,0,0,0,0,0
1562684273093.75,-0,0,0,0,0,0
1562684273109.38,-0,0,0,0,0,0
1562684273125,-0,0,0,0,0,0
1562684273140.63,-0,0,0,0,0,0
1562684273156.25,0,0,0,0,0,0
1562684273171.88,0.01,0,0,0,0,0
1562684273187.5,0.01,0,0,0,0,0
1562684273203.13,-0,0,0,0,0,0
1562684273218.75,-0.03,0,0,0,0,0
1562684273234.38,-0.05,0,0,0,0,0
1562684273250,-0.05,0,0,0,0,0
1562684273265.63,0,0,0,0,0,0
1562684273281.25,0.13,0,0,0,0,0
1562684273296.88,0.36,0,0,0,0,0
1562684273312.5,0.66,0,0,0,0,0
1562684273328.13,1.01,0,0,0,0,0
1562684273343.75,1.37,0,0,0,0,0
1562684273359.38,1.72,0,0,0,0,0
1562684273375,2.06,0,0,0,0,0
1562684273390.63,2.4,0,0,0,0,0
1562684273406.25,2.79,0,0,0,0,0
1562684273421.88,3.24,0,0,0,0,0
1562684273437.5,3.8,0,0,0,0,0
1562684273453.13,4.42,0,0,0,0,0
1562684273468.75,5.06,0,0,0,0,0
1562684273484.38,5.66,0,0,0,0,0
1562684273500,6.2,0,0,0,0,0
1562684273515.63,6.68,0,0,0,0,0
1562684273531.25,7.15,0,0,0,0,0
1562684273546.88,7.68,0,0,0,0,0
1562684273562.5,8.31,0,0,0,0,0
1562684273578.13,9.14,0,0,0,0,0
1562684273593.75,10.09,0,0,0,0,0
1562684273609.38,11.04,0,0,0,0,0
1562684273625,11.88,0,0,0,0,0
1562684273640.63,12.56,0,0,0,0,0
1562684273656.25,13.14,0,0,0,0,0
1562684273671.88,13.76,0,0,0,0,0
1562684273687.5,14.65,0,0,0,0,0
1562684273703.13,15.96,0,0,0,0,0
1562684273718.75,17.91,0,0,0,0,0
1562684273734.38,20.32,0,0,0,0,0
1562684273750,22.9,0,0,0,0,0
1562684273765.63,25.38,0,0,0,0,0
1562684273781.25,27.58,0,0,0,0,0
1562684273796.88,29.57,0,0,0,0,0
1562684273812.5,31.68,0,0,0,0,0
1562684273828.13,34.32,0,0,0,0,0
1562684273843.75,37.81,0,0,0,0,0
1562684273859.38,42.54,0,0,0,0,0
1562684273875,48.15,0,0,0,0,0
1562684273890.63,54.1,0,0,0,0,0
1562684273906.25,59.83,0,0,0,0,0
1562684273921.88,64.97,0,0,0,0,0
1562684273937.5,69.58,0,0,0,0,0
1562684273953.13,74.14,0,0,0,0,0
1562684273968.75,79.34,0,0,0,0,0
1562684273984.38,85.71,0,0,0,0,0
1562684274000,93.76,0,0,0,0,0
1562684274015.63,103,0,0,0,0,0
1562684274031.25,112.62,0,0,0,0,0
1562684274046.88,121.73,0,0,0,0,0
1562684274062.5,129.77,0,0,0,0,0
1562684274078.13,136.75,0,0,0,0,0
1562684274093.75,143.3,0,0,0,0,0
1562684274109.38,150.75,0,0,0,0,0
1562684274125,157.77,0,0,0,0,0
1562684274140.63,166.64,0,0,0,0,0
1562684274156.25,177.95,0,0,0,0,0
1562684274171.88,191.79,0,0,0,0,0
1562684274187.5,206.97,0,0,0,0,0
1562684274203.13,220.57,0,0,0,0,0
1562684274218.75,228.25,0,0,0,0,0
1562684274234.38,225.36,0,0,0,0,0
1562684274250,208.53,0,0,0,0,0
1562684274265.63,176.87,0,0,0,0,0
1562684274281.25,132.76,0,0,0,0,0
1562684274296.88,80.05,0,0,0,0,0
1562684274312.5,23.07,0,0,0,0,0
1562684274328.13,-34.94,0,0,0,0,0
1562684274343.75,-92.44,0,0,0,0,0
1562684274359.38,-149.16,0,0,0,0,0
1562684274375,-205.23,0,0,0,0,0
1562684274390.63,-260.37,0,0,0,0,0
1562684274406.25,-313.74,0,0,0,0,0
1562684274421.88,-363.87,0,0,0,0,0
1562684274437.5,-409.83,0,0,0,0,0
1562684274453.13,-450.9,0,0,0,0,0
1562684274468.75,-486.48,0,0,0,0,0
1562684274484.38,-515.71,0,0,0,0,0
1562684274500,-537.17,0,0,0,0,0
1562684274515.63,-549.14,0,0,0,0,0
1562684274531.25,-549.85,0,0,0,0,0
1562684274546.88,-538.22,0,0,0,0,0
1562684274562.5,-514.02,0,0,0,0,0
1562684274578.13,-478.44,0,0,0,0,0
1562684274593.75,-433.59,0,0,0,0,0
1562684274609.38,-382.1,0,0,0,0,0
1562684274625,-326.61,0,0,0,0,0
1562684274640.63,-269.37,0,0,0,0,0
1562684274656.25,-212.09,0,0,0,0,0
1562684274671.88,-156.05,0,0,0,0,0
1562684274687.5,-102.27,0,0,0,0,0
1562684274703.13,-51.62,0,0,0,0,0
1562684274718.75,-5.08,0,0,0,0,0
1562684274734.38,36.49,0,0,0,0,0
1562684274750,72.42,0,0,0,0,0
1562684274765.63,102.43,0,0,0,0,0
1562684274781.25,126.68,0,0,0,0,0
1562684274796.88,145.66,0,0,0,0,0
1562684274812.5,160.09,0,0,0,0,0
1562684274828.13,170.68,0,0,0,0,0
1562684274843.75,178.04,0,0,0,0,0
1562684274859.38,182.57,0,0,0,0,0
1562684274875,184.57,0,0,0,0,0
1562684274890.63,184.26,0,0,0,0,0
1562684274906.25,181.92,0,0,0,0,0
1562684274921.88,177.9,0,0,0,0,0
1562684274937.5,172.59,0,0,0,0,0
1562684274953.13,166.42,0,0,0,0,0
1562684274968.75,159.73,0,0,0,0,0
1562684274984.38,152.76,0,0,0,0,0
1562684275000,145.67,0,0,0,0,0
1562684275015.63,138.51,0,0,0,0,0
1562684275031.25,131.34,0,0,0,0,0
1562684275046.88,124.2,0,0,0,0,0
1562684275062.5,117.15,0,0,0,0,0
1562684275078.13,110.27,0,0,0,0,0
1562684275093.75,103.61,0,0,0,0,0
1562684275109.38,97.24,0,0,0,0,0
1562684275125,91.19,0,0,0,0,0
1562684275140.63,85.47,0,0,0,0,0
1562684275156.25,80.11,0,0,0,0,0
1562684275171.88,75.09,0,0,0,0,0
1562684275187.5,70.45,0,0,0,0,0
1562684275203.13,66.18,0,0,0,0,0
1562684275218.75,62.29,0,0,0,0,0
1562684275234.38,58.78,0,0,0,0,0
1562684275250,55.66,0,0,0,0,0
1562684275265.63,52.91,0,0,0,0,0
1562684275281.25,50.55,0,0,0,0,0
1562684275296.88,48.57,0,0,0,0,0
1562684275312.5,46.96,0,0,0,0,0
1562684275328.13,45.71,0,0,0,0,0
1562684275343.75,44.81,0,0,0,0,0
1562684275359.38,44.18,0,0,0,0,0
1562684275375,43.77,0,0,0,0,0
1562684275390.63,43.44,0,0,0,0,0
1562684275406.25,43.07,0,0,0,0,0
1562684275421.88,42.47,0,0,0,0,0
1562684275437.5,41.47,0,0,0,0,0
1562684275453.13,39.89,0,0,0,0,0
1562684275468.75,37.59,0,0,0,0,0
1562684275484.38,34.47,0,0,0,0,0
1562684275500,30.52,0,0,0,0,0
1562684275515.63,25.76,0,0,0,0,0
1562684275531.25,20.27,0,0,0,0,0
1562684275546.88,14.23,0,0,0,0,0
1562684275562.5,7.86,0,0,0,0,0
1562684275578.13,1.43,0,0,0,0,0
1562684275593.75,-4.79,0,0,0,0,0
1562684275609.38,-10.56,0,0,0,0,0
1562684275625,-15.64,0,0,0,0,0
1562684275640.63,-19.88,0,0,0,0,0
1562684275656.25,-23.15,0,0,0,0,0
1562684275671.88,-25.43,0,0,0,0,0
1562684275687.5,-26.71,0,0,0,0,0
1562684275703.13,-27.07,0,0,0,0,0
1562684275718.75,-26.62,0,0,0,0,0
1562684275734.38,-25.47,0,0,0,0,0
1562684275750,-23.75,0,0,0,0,0
1562684275765.63,-21.61,0,0,0,0,0
1562684275781.25,-19.15,0,0,0,0,0
1562684275796.88,-16.46,0,0,0,0,0
1562684275812.5,-13.63,0,0,0,0,0
1562684275828.13,-10.69,0,0,0,0,0
1562684275843.75,-7.73,0,0,0,0,0
1562684275859.38,-4.8,0,0,0,0,0
1562684275875,-1.93,0,0,0,0,0
1562684275890.63,0.86,0,0,0,0,0
1562684275906.25,3.57,0,0,0,0,0
1562684275921.88,6.2,0,0,0,0,0
1562684275937.5,8.79,0,0,0,0,0
1562684275953.13,11.4,0,0,0,0,0
1562684275968.75,14.08,0,0,0,0,0
1562684275984.38,16.85,0,0,0,0,0
1562684276000,19.72,0,0,0,0,0
1562684276015.63,22.72,0,0,0,0,0
1562684276031.25,25.88,0,0,0,0,0
1562684276046.88,29.21,0,0,0,0,0
1562684276062.5,32.73,0,0,0,0,0
1562684276078.13,36.45,0,0,0,0,0
1562684276093.75,40.36,0,0,0,0,0
1562684276109.38,44.49,0,0,0,0,0
1562684276125,48.69,0,0,0,0,0
1562684276140.63,52.89,0,0,0,0,0
1562684276156.25,57.04,0,0,0,0,0
1562684276171.88,61.15,0,0,0,0,0
1562684276187.5,65.21,0,0,0,0,0
1562684276203.13,69.28,0,0,0,0,0
1562684276218.75,73.45,0,0,0,0,0
1562684276234.38,77.8,0,0,0,0,0
1562684276250,82.45,0,0,0,0,0
1562684276265.63,87.24,0,0,0,0,0
1562684276281.25,92.08,0,0,0,0,0
1562684276296.88,96.87,0,0,0,0,0
1562684276312.5,101.56,0,0,0,0,0
1562684276328.13,106.09,0,0,0,0,0
1562684276343.75,110.47,0,0,0,0,0
1562684276359.38,114.69,0,0,0,0,0
1562684276375,118.81,0,0,0,0,0
1562684276390.63,122.93,0,0,0,0,0
1562684276406.25,126.85,0,0,0,0,0
1562684276421.88,130.4,0,0,0,0,0
1562684276437.5,133.48,0,0,0,0,0
1562684276453.13,135.95,0,0,0,0,0
1562684276468.75,137.59,0,0,0,0,0
1562684276484.38,138.08,0,0,0,0,0
1562684276500,136.92,0,0,0,0,0
1562684276515.63,133.36,0,0,0,0,0
1562684276531.25,128.82,0,0,0,0,0
1562684276546.88,123.72,0,0,0,0,0
1562684276562.5,118.31,0,0,0,0,0
1562684276578.13,112.68,0,0,0,0,0
1562684276593.75,106.89,0,0,0,0,0
1562684276609.38,100.96,0,0,0,0,0
1562684276625,94.96,0,0,0,0,0
1562684276640.63,88.95,0,0,0,0,0
1562684276656.25,83.05,0,0,0,0,0
1562684276671.88,77.47,0,0,0,0,0
1562684276687.5,72.04,0,0,0,0,0
1562684276703.13,66.69,0,0,0,0,0
1562684276718.75,61.39,0,0,0,0,0
1562684276734.38,56.12,0,0,0,0,0
1562684276750,50.84,0,0,0,0,0
1562684276765.63,45.56,0,0,0,0,0
1562684276781.25,40.31,0,0,0,0,0
1562684276796.88,35.16,0,0,0,0,0
1562684276812.5,30.24,0,0,0,0,0
1562684276828.13,25.47,0,0,0,0,0
1562684276843.75,20.9,0,0,0,0,0
1562684276859.38,16.63,0,0,0,0,0
1562684276875,12.83,0,0,0,0,0
1562684276890.63,9.65,0,0,0,0,0
1562684276906.25,7.27,0,0,0,0,0
1562684276921.88,5.8,0,0,0,0,0
1562684276937.5,5.32,0,0,0,0,0
1562684276953.13,5.83,0,0,0,0,0
1562684276968.75,7.1,0,0,0,0,0
1562684276984.38,8.87,0,0,0,0,0
1562684277000,10.88,0,0,0,0,0
1562684277015.63,12.91,0,0,0,0,0
1562684277031.25,14.76,0,0,0,0,0
1562684277046.88,16.31,0,0,0,0,0
1562684277062.5,17.49,0,0,0,0,0
1562684277078.13,18.3,0,0,0,0,0
1562684277093.75,18.78,0,0,0,0,0
1562684277109.38,18.93,0,0,0,0,0
1562684277125,18.79,0,0,0,0,0
1562684277140.63,18.42,0,0,0,0,0
1562684277156.25,17.92,0,0,0,0,0
1562684277171.88,17.36,0,0,0,0,0
1562684277187.5,16.84,0,0,0,0,0
1562684277203.13,16.4,0,0,0,0,0
1562684277218.75,16.06,0,0,0,0,0
1562684277234.38,15.75,0,0,0,0,0
1562684277250,15.29,0,0,0,0,0
1562684277265.63,14.48,0,0,0,0,0
1562684277281.25,13.1,0,0,0,0,0
1562684277296.88,10.97,0,0,0,0,0
1562684277312.5,8,0,0,0,0,0
1562684277328.13,4.21,0,0,0,0,0
1562684277343.75,-0.34,0,0,0,0,0
1562684277359.38,-5.49,0,0,0,0,0
1562684277375,-11.13,0,0,0,0,0
1562684277390.63,-17.15,0,0,0,0,0
1562684277406.25,-23.49,0,0,0,0,0
1562684277421.88,-30.06,0,0,0,0,0
1562684277437.5,-36.69,0,0,0,0,0
1562684277453.13,-43.12,0,0,0,0,0
1562684277468.75,-48.96,0,0,0,0,0
1562684277484.38,-53.86,0,0,0,0,0
1562684277500,-57.6,0,0,0,0,0
1562684277515.63,-60.17,0,0,0,0,0
1562684277531.25,-61.87,0,0,0,0,0
1562684277546.88,-63.18,0,0,0,0,0
1562684277562.5,-64.65,0,0,0,0,0
1562684277578.13,-66.71,0,0,0,0,0
1562684277593.75,-69.57,0,0,0,0,0
1562684277609.38,-73.16,0,0,0,0,0
1562684277625,-77.31,0,0,0,0,0
1562684277640.63,-81.87,0,0,0,0,0
1562684277656.25,-86.88,0,0,0,0,0
1562684277671.88,-92.68,0,0,0,0,0
1562684277687.5,-99.74,0,0,0,0,0
1562684277703.13,-108.51,0,0,0,0,0
1562684277718.75,-119.13,0,0,0,0,0
1562684277734.38,-131.37,0,0,0,0,0
1562684277750,-144.67,0,0,0,0,0
1562684277765.63,-158.35,0,0,0,0,0
1562684277781.25,-171.85,0,0,0,0,0
1562684277796.88,-184.95,0,0,0,0,0
1562684277812.5,-197.79,0,0,0,0,0
1562684277828.13,-210.75,0,0,0,0,0
1562684277843.75,-224.43,0,0,0,0,0
1562684277859.38,-239.64,0,0,0,0,0
1562684277875,-257.3,0,0,0,0,0
1562684277890.63,-278.13,0,0,0,0,0
1562684277906.25,-302.03,0,0,0,0,0
1562684277921.88,-327.4,0,0,0,0,0
1562684277937.5,-351.13,0,0,0,0,0
1562684277953.13,-369.28,0,0,0,0,0
1562684277968.75,-378.41,0,0,0,0,0
1562684277984.38,-376.8,0,0,0,0,0
1562684278000,-364.88,0,0,0,0,0
1562684278015.63,-344.7,0,0,0,0,0
1562684278031.25,-318.71,0,0,0,0,0
1562684278046.88,-288.76,0,0,0,0,0
1562684278062.5,-255.86,0,0,0,0,0
1562684278078.13,-220.79,0,0,0,0,0
1562684278093.75,-184.88,0,0,0,0,0
1562684278109.38,-150.46,0,0,0,0,0
1562684278125,-120.35,1,0,0,0,0
1562684278140.63,-96.87,1,0,0,0,0
1562684278156.25,-80.85,1,0,0,0,0
1562684278171.88,-71.33,1,0,0,0,0
1562684278187.5,-65.98,1,0,0,0,0
1562684278203.13,-62.02,1,0,0,0,0
1562684278218.75,-56.99,1,0,0,0,0
1562684278234.38,-49.24,1,0,0,0,0
1562684278250,-38.04,1,0,0,0,0
1562684278265.63,-23.57,1,0,0,0,0
1562684278281.25,-6.85,1,0,0,0,0
1562684278296.88,10.5,1,0,0,0,0
1562684278312.5,26.31,1,0,0,0,0
1562684278328.13,38.32,1,0,0,0,0
1562684278343.75,44.62,1,0,0,0,0
1562684278359.38,44.3,1,0,0,0,0
1562684278375,38.01,1,0,0,0,0
1562684278390.63,28.14,1,0,0,0,0
1562684278406.25,18.25,1,0,0,0,0
1562684278421.88,12.06,1,0,0,0,0
1562684278437.5,12.11,1,0,0,0,0
1562684278453.13,18.74,1,0,0,0,0
1562684278468.75,29.97,1,0,0,0,0
1562684278484.38,42.18,1,0,0,0,0
1562684278500,51.44,1,0,0,0,0
1562684278515.63,54.73,1,0,0,0,0
1562684278531.25,50.75,0,0,0,0,0
1562684278546.88,39.95,0,0,0,0,0
1562684278562.5,24.24,0,0,0,0,0
1562684278578.13,6.35,0,0,0,0,0
1562684278593.75,-10.55,0,0,0,0,0
1562684278609.38,-23.42,0,0,0,0,0
1562684278625,-29.89,0,0,0,0,0
1562684278640.63,-29.07,0,0,0,0,0
1562684278656.25,-21.92,0,0,0,0,0
1562684278671.88,-11.35,0,0,0,0,0
1562684278687.5,-1.6,0,0,0,0,0
1562684278703.13,2.95,0,0,0,0,0
1562684278718.75,-0.71,0,0,0,0,0
1562684278734.38,-13,0,0,0,0,0
1562684278750,-31.32,0,0,0,0,0
1562684278765.63,-50.59,0,0,0,0,0
1562684278781.25,-64.79,0,0,0,0,0
1562684278796.88,-68.86,0,0,0,0,0
1562684278812.5,-60.18,0,0,0,0,0
1562684278828.13,-39.15,0,0,0,0,0
1562684278843.75,-8.66,0,0,0,0,0
1562684278859.38,27.04,0,0,0,0,0
1562684278875,63.51,0,0,0,0,0
1562684278890.63,96.77,0,0,0,0,0
1562684278906.25,123.38,0,0,0,0,0
1562684278921.88,140.46,0,0,0,0,0
1562684278937.5,145.8,0,0,0,0,0
1562684278953.13,138.39,0,0,0,0,0
1562684278968.75,118.83,0,0,0,0,0
1562684278984.38,89.29,0,0,0,0,0
1562684279000,53.1,0,0,0,0,0
1562684279015.63,14.04,0,0,0,0,0
1562684279031.25,-23.93,0,0,0,0,0
1562684279046.88,-56.71,0,0,0,0,0
1562684279062.5,-80.08,0,0,0,0,0
1562684279078.13,-90.25,0,0,0,0,0
1562684279093.75,-84.85,0,0,0,0,0
1562684279109.38,-63.97,0,0,0,0,0
1562684279125,-30.43,0,0,0,0,0
1562684279140.63,10.93,0,0,0,0,0
1562684279156.25,54.71,0,0,0,0,0
1562684279171.88,96.23,0,0,0,0,0
1562684279187.5,132.04,0,0,0,0,0
1562684279203.13,159.47,0,0,0,0,0
1562684279218.75,175.94,0,0,0,0,0
1562684279234.38,178.96,0,0,0,0,0
1562684279250,167.03,0,0,0,0,0
1562684279265.63,140.99,0,0,0,0,0
1562684279281.25,104.83,0,0,0,0,0
1562684279296.88,65.09,0,0,0,0,0
1562684279312.5,28.88,0,0,0,0,0
1562684279328.13,1.49,0,0,0,0,0
1562684279343.75,-15.32,0,0,0,0,0
1562684279359.38,-23.44,0,0,0,0,0
1562684279375,-26.99,0,0,0,0,0
1562684279390.63,-30.41,0,0,0,0,0
1562684279406.25,-36.77,0,0,0,0,0
1562684279421.88,-47.14,0,0,0,0,0
1562684279437.5,-60.66,0,0,0,0,0
1562684279453.13,-75.28,0,0,0,0,0
1562684279468.75,-88.34,0,0,0,0,0
1562684279484.38,-97.31,0,0,0,0,0
1562684279500,-100.25,0,0,0,0,0
1562684279515.63,-96.31,0,0,0,0,0
1562684279531.25,-85.97,0,0,0,0,0
1562684279546.88,-71.01,0,0,0,0,0
1562684279562.5,-53.89,0,0,0,0,0
1562684279578.13,-37.04,0,0,0,0,0
1562684279593.75,-22.16,0,0,0,0,0
1562684279609.38,-9.97,0,0,0,0,0
1562684279625,-0.31,0,0,0,0,0
1562684279640.63,7.38,0,0,0,0,0
1562684279656.25,13.71,0,0,0,0,0
1562684279671.88,19.13,0,0,0,0,0
1562684279687.5,23.83,0,0,0,0,0
1562684279703.13,27.68,0,0,0,0,0
1562684279718.75,30.03,0,0,0,0,0
1562684279734.38,29.72,0,0,0,0,0
1562684279750,25.31,0,0,0,0,0
1562684279765.63,15.54,0,0,0,0,0
1562684279781.25,-0.36,0,0,0,0,0
1562684279796.88,-22.07,0,0,0,0,0
1562684279812.5,-47.85,0,0,0,0,0
1562684279828.13,-74.3,0,0,0,0,0
1562684279843.75,-96.58,0,0,0,0,0
1562684279859.38,-109,0,0,0,0,0
1562684279875,-106.19,0,0,0,0,0
1562684279890.63,-84.81,0,0,0,0,0
1562684279906.25,-45.08,0,0,0,0,0
1562684279921.88,8.6,0,0,0,0,0
1562684279937.5,68.49,0,0,0,0,0
1562684279953.13,125.64,0,0,0,0,0
1562684279968.75,172.35,0,0,0,0,0
1562684279984.38,203.81,0,0,0,0,0
1562684280000,218.29,0,0,0,0,0
1562684280015.63,216.29,0,0,0,0,0
1562684280031.25,199.32,0,0,0,0,0
1562684280046.88,169.46,0,0,0,0,0
1562684280062.5,129.6,0,0,0,0,0
1562684280078.13,83.88,0,0,0,0,0
1562684280093.75,37.55,0,0,0,0,0
1562684280109.38,-4.26,0,0,0,0,0
1562684280125,-38.19,0,0,0,0,0
1562684280140.63,-63.89,0,0,0,0,0
1562684280156.25,-83.69,0,0,0,0,0
1562684280171.88,-100.8,0,0,0,0,0
1562684280187.5,-116.82,0,0,0,0,0
1562684280203.13,-130.19,0,0,0,0,0
1562684280218.75,-136.62,0,0,0,0,0
1562684280234.38,-131.32,0,0,0,0,0
1562684280250,-111.75,0,0,0,0,0
1562684280265.63,-79.31,0,0,0,0,0
1562684280281.25,-39.31,0,0,0,0,0
1562684280296.88,0.85,0,0,0,0,0
1562684280312.5,34.07,0,0,0,0,0
1562684280328.13,55.66,0,0,0,0,0
1562684280343.75,63.93,0,0,0,0,0
1562684280359.38,59.86,0,0,0,0,0
1562684280375,46.2,0,0,0,0,0
1562684280390.63,26.51,0,0,0,0,0
1562684280406.25,4.66,0,0,0,0,0
1562684280421.88,-15.52,0,0,0,0,0
1562684280437.5,-30.8,0,0,0,0,0
1562684280453.13,-39.17,0,0,0,0,0
1562684280468.75,-40.61,0,0,0,0,0
1562684280484.38,-37.23,0,0,0,0,0
1562684280500,-32.75,0,0,0,0,0
1562684280515.63,-31.25,0,0,0,0,0
1562684280531.25,-35.72,0,0,0,0,0
1562684280546.88,-46.76,0,0,0,0,0
1562684280562.5,-62.01,0,0,0,0,0
1562684280578.13,-76.69,0,0,0,0,0
1562684280593.75,-84.72,0,0,0,0,0
1562684280609.38,-80.29,0,0,0,0,0
1562684280625,-59.43,0,0,0,0,0
1562684280640.63,-21.11,0,0,0,0,0
1562684280656.25,31.93,0,0,0,0,0
1562684280671.88,93.27,0,0,0,0,0
1562684280687.5,153.83,0,0,0,0,0
1562684280703.13,203.93,0,0,0,0,0
1562684280718.75,236.08,0,0,0,0,0
1562684280734.38,247.29,0,0,0,0,0
1562684280750,239.75,0,0,0,0,0
1562684280765.63,219.32,0,0,0,0,0
1562684280781.25,192.58,0,0,0,0,0
1562684280796.88,164.18,0,0,0,0,0
1562684280812.5,135.84,0,0,0,0,0
1562684280828.13,107.62,0,0,0,0,0
1562684280843.75,79.93,0,0,0,0,0
1562684280859.38,54.56,0,0,0,0,0
1562684280875,33.8,0,0,0,0,0
1562684280890.63,18.11,0,0,0,0,0
1562684280906.25,4.72,0,0,0,0,0
1562684280921.88,-11.33,0,0,0,0,0
1562684280937.5,-33.85,0,0,0,0,0
1562684280953.13,-62.08,0,0,0,0,0
1562684280968.75,-89.64,0,0,0,0,0
1562684280984.38,-107.31,0,0,0,0,0
1562684281000,-108.02,0,0,0,0,0
1562684281015.63,-91.03,0,0,0,0,0
1562684281031.25,-63.01,0,0,0,0,0
1562684281046.88,-35.07,0,0,0,0,0
1562684281062.5,-17.85,0,0,0,0,0
1562684281078.13,-17.27,0,0,0,0,0
1562684281093.75,-32.78,0,0,0,0,0
1562684281109.38,-58.35,0,0,0,0,0
1562684281125,-84.92,0,0,0,0,0
1562684281140.63,-103.07,0,0,0,0,0
1562684281156.25,-105.17,0,0,0,0,0
1562684281171.88,-87.07,0,0,0,0,0
1562684281187.5,-49.41,0,0,0,0,0
1562684281203.13,1.81,0,0,0,0,0
1562684281218.75,55.88,0,0,0,0,0
1562684281234.38,99.77,0,0,0,0,0
1562684281250,121.85,0,0,0,0,0
1562684281265.63,115.71,0,0,0,0,0
1562684281281.25,82.54,0,0,0,0,0
1562684281296.88,30.9,0,0,0,0,0
1562684281312.5,-26.04,0,0,0,0,0
1562684281328.13,-74.68,0,0,0,0,0
1562684281343.75,-105.03,0,0,0,0,0
1562684281359.38,-113.16,0,0,0,0,0
1562684281375,-101.24,0,0,0,0,0
1562684281390.63,-75.65,0,0,0,0,0
1562684281406.25,-44.13,0,0,0,0,0
1562684281421.88,-13.17,0,0,0,0,0
1562684281437.5,13.45,0,0,0,0,0
1562684281453.13,34.68,0,0,0,0,0
1562684281468.75,51.31,0,0,0,0,0
1562684281484.38,64.64,0,0,0,0,0
1562684281500,75.67,0,0,0,0,0
1562684281515.63,84.7,0,0,0,0,0
1562684281531.25,91.49,0,0,0,0,0
1562684281546.88,95.46,0,0,0,0,0
1562684281562.5,95.82,0,0,0,0,0
1562684281578.13,91.34,0,0,0,0,0
1562684281593.75,80.36,0,0,0,0,0
1562684281609.38,61.12,0,0,0,0,0
1562684281625,32.59,0,0,0,0,0
1562684281640.63,-4.22,0,0,0,0,0
1562684281656.25,-45.5,0,0,0,0,0
1562684281671.88,-84.81,0,0,0,0,0
1562684281687.5,-114.59,0,0,0,0,0
1562684281703.13,-128.58,0,0,0,0,0
1562684281718.75,-123.94,0,0,0,0,0
1562684281734.38,-102.12,0,0,0,0,0
1562684281750,-68.01,0,0,0,0,0
1562684281765.63,-27.89,0,0,0,0,0
1562684281781.25,12.76,0,0,0,0,0
1562684281796.88,50.24,0,0,0,0,0
1562684281812.5,82.43,0,0,0,0,0
1562684281828.13,107.71,0,0,0,0,0
1562684281843.75,124.11,0,0,0,0,0
1562684281859.38,129.46,0,0,0,0,0
1562684281875,122.39,0,0,0,0,0
1562684281890.63,103.41,0,0,0,0,0
1562684281906.25,75.33,0,0,0,0,0
1562684281921.88,42.59,0,0,0,0,0
1562684281937.5,9.86,0,0,0,0,0
1562684281953.13,-19.33,0,0,0,0,0
1562684281968.75,-43.28,0,0,0,0,0
1562684281984.38,-61.77,0,0,0,0,0
1562684282000,-75.04,0,0,0,0,0
1562684282015.63,-82.75,0,0,0,0,0
1562684282031.25,-83.7,0,0,0,0,0
1562684282046.88,-76.47,0,0,0,0,0
1562684282062.5,-60.49,0,0,0,0,0
1562684282078.13,-37.04,0,0,0,0,0
1562684282093.75,-9.48,0,0,0,0,0
1562684282109.38,17.66,0,0,0,0,0
1562684282125,40.04,0,0,0,0,0
1562684282140.63,54.88,0,0,0,0,0
1562684282156.25,61.54,0,0,0,0,0
1562684282171.88,61.16,0,0,0,0,0
1562684282187.5,55.83,0,0,0,0,0
1562684282203.13,47.64,0,0,0,0,0
1562684282218.75,38.38,0,0,0,0,0
1562684282234.38,29.68,0,0,0,0,0
1562684282250,23.18,0,0,0,0,0
1562684282265.63,20.47,0,0,0,0,0
1562684282281.25,22.53,0,0,0,0,0
1562684282296.88,29.1,0,0,0,0,0
1562684282312.5,38.18,0,0,0,0,0
1562684282328.13,46.41,0,0,0,0,0
1562684282343.75,49.88,0,0,0,0,0
1562684282359.38,45.68,0,0,0,0,0
1562684282375,33.12,0,0,0,0,0
1562684282390.63,14.43,0,0,0,0,0
1562684282406.25,-5.77,0,0,0,0,0
1562684282421.88,-21.97,0,0,0,0,0
1562684282437.5,-29.81,0,0,0,0,0
1562684282453.13,-27.75,0,0,0,0,0
1562684282468.75,-17.7,0,0,0,0,0
1562684282484.38,-4.26,0,0,0,0,0
1562684282500,7.12,0,0,0,0,0
1562684282515.63,12.08,0,0,0,0,0
1562684282531.25,8.71,0,0,0,0,0
1562684282546.88,-2.28,0,0,0,0,0
1562684282562.5,-18.33,0,0,0,0,0
1562684282578.13,-36.14,0,0,0,0,0
1562684282593.75,-52.54,0,0,0,0,0
1562684282609.38,-65.05,0,0,0,0,0
1562684282625,-71.98,0,0,0,0,0
1562684282640.63,-72.63,0,0,0,0,0
1562684282656.25,-67.55,0,0,0,0,0
1562684282671.88,-58.81,0,0,0,0,0
1562684282687.5,-49.7,0,0,0,0,0
1562684282703.13,-43.7,0,0,0,0,0
1562684282718.75,-42.93,0,0,0,0,0
1562684282734.38,-46.85,0,0,0,0,0
1562684282750,-52.02,0,0,0,0,0
1562684282765.63,-53.36,0,0,0,0,0
1562684282781.25,-46.27,0,0,0,0,0
1562684282796.88,-28.88,0,0,0,0,0
1562684282812.5,-3.05,0,0,0,0,0
1562684282828.13,26.27,0,0,0,0,0
1562684282843.75,52.93,0,0,0,0,0
1562684282859.38,71.88,0,0,0,0,0
1562684282875,80.58,0,0,0,0,0
1562684282890.63,79.18,0,0,0,0,0
1562684282906.25,69.68,0,0,0,0,0
1562684282921.88,54.55,0,0,0,0,0
1562684282937.5,35.84,0,0,0,0,0
1562684282953.13,14.9,0,0,0,0,0
1562684282968.75,-7.27,0,0,0,0,0
1562684282984.38,-29.65,0,0,0,0,0
1562684283000,-50.94,0,0,0,0,0
1562684283015.63,-69.76,0,0,0,0,0
1562684283031.25,-84.97,0,0,0,0,0
1562684283046.88,-95.79,0,0,0,0,0
1562684283062.5,-101.69,0,0,0,0,0
1562684283078.13,-102.02,0,0,0,0,0
1562684283093.75,-95.54,0,0,0,0,0
1562684283109.38,-80.61,0,0,0,0,0
1562684283125,-55.92,0,0,0,0,0
1562684283140.63,-21.5,0,0,0,0,0
1562684283156.25,20.45,0,0,0,0,0
1562684283171.88,65.44,0,0,0,0,0
1562684283187.5,107.59,0,0,0,0,0
1562684283203.13,141.11,0,0,0,0,0
1562684283218.75,161.81,0,0,0,0,0
1562684283234.38,168.06,0,0,0,0,0
1562684283250,160.75,0,0,0,0,0
1562684283265.63,142.53,0,0,0,0,0
1562684283281.25,116.74,0,0,0,0,0
1562684283296.88,86.57,0,0,0,0,0
1562684283312.5,54.6,0,0,0,0,0
1562684283328.13,22.8,0,0,0,0,0
1562684283343.75,-7.41,0,0,0,0,0
1562684283359.38,-35.01,0,0,0,0,0
1562684283375,-59.41,0,0,0,0,0
1562684283390.63,-80.59,0,0,0,0,0
1562684283406.25,-99.02,0,0,0,0,0
1562684283421.88,-115.25,0,0,0,0,0
1562684283437.5,-129.2,0,0,0,0,0
1562684283453.13,-139.42,0,0,0,0,0
1562684283468.75,-143.05,0,0,0,0,0
1562684283484.38,-136.73,0,0,0,0,0
1562684283500,-118.08,0,0,0,0,0
1562684283515.63,-87.28,0,0,0,0,0
1562684283531.25,-47.74,0,0,0,0,0
1562684283546.88,-5.33,0,0,0,0,0
1562684283562.5,33.5,0,0,0,0,0
1562684283578.13,63.82,0,0,0,0,0
1562684283593.75,83.49,0,0,0,0,0
1562684283609.38,93.19,0,0,0,0,0
1562684283625,95.23,0,0,0,0,0
1562684283640.63,91.88,0,0,0,0,0
1562684283656.25,84.38,0,0,0,0,0
1562684283671.88,72.75,0,0,0,0,0
1562684283687.5,56.53,0,0,0,0,0
1562684283703.13,35.73,0,0,0,0,0
1562684283718.75,11.34,0,0,0,0,0
1562684283734.38,-14.79,0,0,0,0,0
1562684283750,-40.75,0,0,0,0,0
1562684283765.63,-65.27,0,0,0,0,0
1562684283781.25,-87.84,0,0,0,0,0
1562684283796.88,-108.04,0,0,0,0,0
1562684283812.5,-124.46,0,0,0,0,0
1562684283828.13,-134.14,0,0,0,0,0
1562684283843.75,-133.13,0,0,0,0,0
1562684283859.38,-118.09,0,0,0,0,0
1562684283875,-88.12,0,0,0,0,0
1562684283890.63,-45.73,0,0,0,0,0
1562684283906.25,3.59,0,0,0,0,0
1562684283921.88,53.15,0,0,0,0,0
1562684283937.5,97.01,0,0,0,0,0
1562684283953.13,131.31,0,0,0,0,0
1562684283968.75,154.39,0,0,0,0,0
1562684283984.38,166.09,0,0,0,0,0
1562684284000,167.09,0,0,0,0,0
1562684284015.63,158.67,0,0,0,0,0
1562684284031.25,143.05,0,0,0,0,0
1562684284046.88,123.44,0,0,0,0,0
1562684284062.5,103.52,0,0,0,0,0
1562684284078.13,86.25,0,0,0,0,0
1562684284093.75,72.59,0,0,0,0,0
1562684284109.38,60.86,0,0,0,0,0
1562684284125,47.25,0,0,0,0,0
1562684284140.63,27.52,0,0,0,0,0
1562684284156.25,-0.74,0,0,0,0,0
1562684284171.88,-36.48,0,0,0,0,0
1562684284187.5,-74.66,0,0,0,0,0
1562684284203.13,-107.7,0,0,0,0,0
1562684284218.75,-128.09,0,0,0,0,0
1562684284234.38,-131.31,0,0,0,0,0
1562684284250,-117.63,0,0,0,0,0
1562684284265.63,-91.88,0,0,0,0,0
1562684284281.25,-61.39,0,0,0,0,0
1562684284296.88,-32.98,0,0,0,0,0
1562684284312.5,-10.62,0,0,0,0,0
1562684284328.13,5.33,0,0,0,0,0
1562684284343.75,16.97,0,0,0,0,0
1562684284359.38,26.75,0,0,0,0,0
1562684284375,35.65,0,0,0,0,0
1562684284390.63,42.53,0,0,0,0,0
1562684284406.25,44.99,0,0,0,0,0
1562684284421.88,40.86,0,0,0,0,0
1562684284437.5,29.4,0,0,0,0,0
1562684284453.13,11.42,0,0,0,0,0
1562684284468.75,-11.3,0,0,0,0,0
1562684284484.38,-37.05,0,0,0,0,0
1562684284500,-64.47,0,0,0,0,0
1562684284515.63,-92.16,0,0,0,0,0
1562684284531.25,-117.65,0,0,0,0,0
1562684284546.88,-137.03,0,0,0,0,0
1562684284562.5,-145.57,0,0,0,0,0
1562684284578.13,-139.48,0,0,0,0,0
1562684284593.75,-117.92,0,0,0,0,0
1562684284609.38,-83.82,0,0,0,0,0
1562684284625,-42.94,0,0,0,0,0
1562684284640.63,-1.35,0,0,0,0,0
1562684284656.25,37.09,0,0,0,0,0
1562684284671.88,71.78,0,0,0,0,0
1562684284687.5,104.35,0,0,0,0,0
1562684284703.13,136,0,0,0,0,0
1562684284718.75,165.41,0,0,0,0,0
1562684284734.38,188.56,0,0,0,0,0
1562684284750,200.64,0,0,0,0,0
1562684284765.63,198.98,0,0,0,0,0
1562684284781.25,184.56,0,0,0,0,0
1562684284796.88,161.03,0,0,0,0,0
1562684284812.5,132.01,0,0,0,0,0
1562684284828.13,98.41,0,0,0,0,0
1562684284843.75,58.43,0,0,0,0,0
1562684284859.38,10.13,0,0,0,0,0
1562684284875,-44.71,0,0,0,0,0
1562684284890.63,-98.45,0,0,0,0,0
1562684284906.25,-138.74,0,0,0,0,0
1562684284921.88,-153.07,0,0,0,0,0
1562684284937.5,-134.22,0,0,0,0,0
1562684284953.13,-84.12,0,0,0,0,0
1562684284968.75,-13.88,0,0,0,0,0
1562684284984.38,59.9,0,0,0,0,0
1562684285000,120.82,0,0,0,0,0
1562684285015.63,157.74,0,0,0,0,0
1562684285031.25,167.39,0,0,0,0,0
1562684285046.88,153.8,0,0,0,0,0
1562684285062.5,125.25,0,0,0,0,0
1562684285078.13,90.48,0,0,0,0,0
1562684285093.75,55.91,0,0,0,0,0
1562684285109.38,24.55,0,0,0,0,0
1562684285125,-3.08,0,0,0,0,0
1562684285140.63,-27.24,0,0,0,0,0
1562684285156.25,-47.66,0,0,0,0,0
1562684285171.88,-63.61,0,0,0,0,0
1562684285187.5,-74.96,0,0,0,0,0
1562684285203.13,-83.11,0,0,0,0,0
1562684285218.75,-90.74,0,0,0,0,0
1562684285234.38,-100.01,0,0,0,0,0
1562684285250,-110.73,0,0,0,0,0
1562684285265.63,-119.71,0,0,0,0,0
1562684285281.25,-122.2,0,0,0,0,0
1562684285296.88,-114.76,0,0,0,0,0
1562684285312.5,-97.1,0,0,0,0,0
1562684285328.13,-71.98,0,0,0,0,0
1562684285343.75,-42.93,0,0,0,0,0
1562684285359.38,-11.87,0,0,0,0,0
1562684285375,21.43,0,0,0,0,0
1562684285390.63,57.53,0,0,0,0,0
1562684285406.25,94.33,0,0,0,0,0
1562684285421.88,125.74,0,0,0,0,0
1562684285437.5,143.21,0,0,0,0,0
1562684285453.13,139.86,0,0,0,0,0
1562684285468.75,114.47,0,0,0,0,0
1562684285484.38,72.88,0,0,0,0,0
1562684285500,25.59,0,0,0,0,0
1562684285515.63,-17.02,0,0,0,0,0
1562684285531.25,-48.91,0,0,0,0,0
1562684285546.88,-69.81,0,0,0,0,0
1562684285562.5,-83.33,0,0,0,0,0
1562684285578.13,-93.47,0,0,0,0,0
1562684285593.75,-101.51,0,0,0,0,0
1562684285609.38,-105.42,0,0,0,0,0
1562684285625,-101.42,0,0,0,0,0
1562684285640.63,-86.72,0,0,0,0,0
1562684285656.25,-61.57,0,0,0,0,0
1562684285671.88,-29.8,0,0,0,0,0
1562684285687.5,2.38,0,0,0,0,0
1562684285703.13,28.54,0,0,0,0,0
1562684285718.75,44.21,0,0,0,0,0
1562684285734.38,48.03,0,0,0,0,0
1562684285750,41.56,0,0,0,0,0
1562684285765.63,27.93,0,0,0,0,0
1562684285781.25,10.42,0,0,0,0,0
1562684285796.88,-8.46,0,0,0,0,0
1562684285812.5,-26.89,0,0,0,0,0
1562684285828.13,-42.95,0,0,0,0,0
1562684285843.75,-54.06,0,0,0,0,0
1562684285859.38,-57.25,0,0,0,0,0
1562684285875,-50.62,0,0,0,0,0
1562684285890.63,-34.98,0,0,0,0,0
1562684285906.25,-14.6,0,0,0,0,0
1562684285921.88,3.88,0,0,0,0,0
1562684285937.5,14.1,0,0,0,0,0
1562684285953.13,12.9,0,0,0,0,0
1562684285968.75,2.04,0,0,0,0,0
1562684285984.38,-12.64,0,0,0,0,0
1562684286000,-23.97,0,0,0,0,0
1562684286015.63,-26.94,0,0,0,0,0
1562684286031.25,-20.76,0,0,0,0,0
1562684286046.88,-8.6,0,0,0,0,0
1562684286062.5,5,0,0,0,0,0
1562684286078.13,17.15,0,0,0,0,0
1562684286093.75,28.35,0,0,0,0,0
1562684286109.38,41.7,0,0,0,0,0
1562684286125,60.27,0,0,0,0,0
1562684286140.63,84.13,0,0,0,0,0
1562684286156.25,108.98,0,0,0,0,0
1562684286171.88,127.59,0,0,0,0,0
1562684286187.5,133.13,0,0,0,0,0
1562684286203.13,122.73,0,0,0,0,0
1562684286218.75,98.79,0,0,0,0,0
1562684286234.38,67.43,0,0,0,0,0
1562684286250,35.12,0,0,0,0,0
1562684286265.63,5.52,0,0,0,0,0
1562684286281.25,-21.25,0,0,0,0,0
1562684286296.88,-46.56,0,0,0,0,0
1562684286312.5,-70.02,0,0,0,0,0
1562684286328.13,-87.57,0,0,0,0,0
1562684286343.75,-92.54,0,0,0,0,0
1562684286359.38,-79.33,0,0,0,0,0
1562684286375,-47.41,0,0,0,0,0
1562684286390.63,-3.1,0,0,0,0,0
1562684286406.25,42.37,0,0,0,0,0
1562684286421.88,77.46,0,0,0,0,0
1562684286437.5,94.92,0,0,0,0,0
1562684286453.13,93.93,0,0,0,0,0
1562684286468.75,78.8,0,0,0,0,0
1562684286484.38,55.41,0,0,0,0,0
1562684286500,28,0,0,0,0,0
1562684286515.63,-1.91,0,0,0,0,0
1562684286531.25,-33.94,0,0,0,0,0
1562684286546.88,-66.27,0,0,0,0,0
1562684286562.5,-93.87,0,0,0,0,0
1562684286578.13,-109.13,0,0,0,0,0
1562684286593.75,-105.07,0,0,0,0,0
1562684286609.38,-79.28,0,0,0,0,0
1562684286625,-36.5,0,0,0,0,0
1562684286640.63,12.09,0,0,0,0,0
1562684286656.25,52.74,0,0,0,0,0
1562684286671.88,74.53,0,0,0,0,0
1562684286687.5,73.63,0,0,0,0,0
1562684286703.13,54.49,0,0,0,0,0
1562684286718.75,27.22,0,0,0,0,0
1562684286734.38,2.79,0,0,0,0,0
1562684286750,-11.53,0,0,0,0,0
1562684286765.63,-14.43,0,0,0,0,0
1562684286781.25,-9.67,0,0,0,0,0
1562684286796.88,-3.18,0,0,0,0,0
1562684286812.5,0.1,0,0,0,0,0
1562684286828.13,-1.95,0,0,0,0,0
1562684286843.75,-8.73,0,0,0,0,0
1562684286859.38,-18.18,0,0,0,0,0
1562684286875,-28.19,0,0,0,0,0
1562684286890.63,-37.35,0,0,0,0,0
1562684286906.25,-44.89,0,0,0,0,0
1562684286921.88,-50.11,0,0,0,0,0
1562684286937.5,-52.09,0,0,0,0,0
1562684286953.13,-49.82,0,0,0,0,0
1562684286968.75,-43.01,0,0,0,0,0
1562684286984.38,-32.79,0,0,0,0,0
1562684287000,-22,0,0,0,0,0
1562684287015.63,-14.29,0,0,0,0,0
1562684287031.25,-12.59,0,0,0,0,0
1562684287046.88,-17.53,0,0,0,0,0
1562684287062.5,-26.73,0,0,0,0,0
1562684287078.13,-35.77,0,0,0,0,0
1562684287093.75,-40.15,0,0,0,0,0
1562684287109.38,-37.7,0,0,0,0,0
1562684287125,-29.55,0,0,0,0,0
1562684287140.63,-19.36,0,0,0,0,0
1562684287156.25,-10.95,0,0,0,0,0
1562684287171.88,-5.82,0,0,0,0,0
1562684287187.5,-1.96,0,0,0,0,0
1562684287203.13,5.28,0,0,0,0,0
1562684287218.75,20.63,0,0,0,0,0
1562684287234.38,46.07,0,0,0,0,0
1562684287250,79.29,0,0,0,0,0
1562684287265.63,114.11,0,0,0,0,0
1562684287281.25,142.55,0,0,0,0,0
1562684287296.88,157.68,0,0,0,0,0
1562684287312.5,155.49,0,0,0,0,0
1562684287328.13,135.6,0,0,0,0,0
1562684287343.75,100.62,0,0,0,0,0
1562684287359.38,55.23,0,0,0,0,0
1562684287375,5.38,0,0,0,0,0
1562684287390.63,-41.92,0,0,0,0,0
1562684287406.25,-79.17,0,0,0,0,0
1562684287421.88,-99.56,0,0,0,0,0
1562684287437.5,-98.87,0,0,0,0,0
1562684287453.13,-77.52,0,0,0,0,0
1562684287468.75,-41.3,0,0,0,0,0
1562684287484.38,-0.19,0,0,0,0,0
1562684287500,34.71,0,0,0,0,0
1562684287515.63,54.76,0,0,0,0,0
1562684287531.25,56.48,0,0,0,0,0
1562684287546.88,42.03,0,0,0,0,0
1562684287562.5,17.45,0,0,0,0,0
1562684287578.13,-10.14,0,0,0,0,0
1562684287593.75,-35.06,0,0,0,0,0
1562684287609.38,-54.26,0,0,0,0,0
1562684287625,-66.92,0,0,0,0,0
1562684287640.63,-73.41,0,0,0,0,0
1562684287656.25,-74.28,0,0,0,0,0
1562684287671.88,-70.17,0,0,0,0,0
1562684287687.5,-62.19,0,0,0,0,0
1562684287703.13,-52.35,0,0,0,0,0
1562684287718.75,-43.3,0,0,0,0,0
1562684287734.38,-37.36,0,0,0,0,0
1562684287750,-35.3,0,0,0,0,0
1562684287765.63,-35.67,0,0,0,0,0
1562684287781.25,-35.2,0,0,0,0,0
1562684287796.88,-30.23,0,0,0,0,0
1562684287812.5,-18.55,0,0,0,0,0
1562684287828.13,-0.58,0,0,0,0,0
1562684287843.75,20.68,0,0,0,0,0
1562684287859.38,41.04,0,0,0,0,0
1562684287875,56.78,0,0,0,0,0
1562684287890.63,65.92,0,0,0,0,0
1562684287906.25,68.32,0,0,0,0,0
1562684287921.88,64.79,0,0,0,0,0
1562684287937.5,56.1,0,0,0,0,0
1562684287953.13,42.38,0,0,0,0,0
1562684287968.75,23.51,0,0,0,0,0
1562684287984.38,-0.21,0,0,0,0,0
1562684288000,-27.27,0,0,0,0,0
1562684288015.63,-55.13,0,0,0,0,0
1562684288031.25,-80.92,0,0,0,0,0
1562684288046.88,-102.38,0,0,0,0,0
1562684288062.5,-118.45,0,0,0,0,0
1562684288078.13,-128.86,0,0,0,0,0
1562684288093.75,-133.33,0,0,0,0,0
1562684288109.38,-130.89,0,0,0,0,0
1562684288125,-119.96,0,0,0,0,0
1562684288140.63,-99.3,0,0,0,0,0
1562684288156.25,-69.32,0,0,0,0,0
1562684288171.88,-32.93,0,0,0,0,0
1562684288187.5,4.78,0,0,0,0,0
1562684288203.13,37.72,0,0,0,0,0
1562684288218.75,60.77,0,0,0,0,0
1562684288234.38,71.37,0,0,0,0,0
1562684288250,70.19,0,0,0,0,0
1562684288265.63,60.63,0,0,0,0,0
1562684288281.25,47.44,0,0,0,0,0
1562684288296.88,35.07,0,0,0,0,0
1562684288312.5,26.24,0,0,0,0,0
1562684288328.13,21.39,0,0,0,0,0
1562684288343.75,18.71,0,0,0,0,0
1562684288359.38,14.99,0,0,0,0,0
1562684288375,6.58,0,0,0,0,0
1562684288390.63,-9.38,0,0,0,0,0
1562684288406.25,-33.84,0,0,0,0,0
1562684288421.88,-64.96,0,0,0,0,0
1562684288437.5,-98.03,0,0,0,0,0
1562684288453.13,-126.2,0,0,0,0,0
1562684288468.75,-142.01,0,0,0,0,0
1562684288484.38,-139.39,0,0,0,0,0
1562684288500,-115.46,0,0,0,0,0
1562684288515.63,-71.46,0,0,0,0,0
1562684288531.25,-12.71,0,0,0,0,0
1562684288546.88,52.58,0,0,0,0,0
1562684288562.5,114.93,0,0,0,0,0
1562684288578.13,165.63,0,0,0,0,0
1562684288593.75,198.38,0,0,0,0,0
1562684288609.38,210.59,0,0,0,0,0
1562684288625,203.88,0,0,0,0,0
1562684288640.63,183.39,0,0,0,0,0
1562684288656.25,156.03,0,0,0,0,0
1562684288671.88,128.08,0,0,0,0,0
1562684288687.5,103.14,0,0,0,0,0
1562684288703.13,81.41,0,0,0,0,0
1562684288718.75,60.54,0,0,0,0,0
1562684288734.38,37.61,0,0,0,0,0
1562684288750,11.07,0,0,0,0,0
1562684288765.63,-18.27,0,0,0,0,0
1562684288781.25,-47.43,0,0,0,0,0
1562684288796.88,-72.24,0,0,0,0,0
1562684288812.5,-88.68,0,0,0,0,0
1562684288828.13,-93.87,0,0,0,0,0
1562684288843.75,-86.69,0,0,0,0,0
1562684288859.38,-68.05,0,0,0,0,0
1562684288875,-40.72,0,0,0,0,0
1562684288890.63,-8.99,0,0,0,0,0
1562684288906.25,22.2,0,0,0,0,0
1562684288921.88,48.32,0,0,0,0,0
1562684288937.5,66.25,0,0,0,0,0
1562684288953.13,74.84,0,0,0,0,0
1562684288968.75,74.78,0,0,0,0,0
1562684288984.38,67.99,0,0,0,0,0
1562684289000,56.98,0,0,0,0,0
1562684289015.63,44.2,0,0,0,0,0
1562684289031.25,31.71,0,0,0,0,0
1562684289046.88,20.9,0,0,0,0,0
1562684289062.5,12.31,0,0,0,0,0
1562684289078.13,5.6,0,0,0,0,0
1562684289093.75,-0.45,0,0,0,0,0
1562684289109.38,-7.38,0,0,0,0,0
1562684289125,-16.44,0,0,0,0,0
1562684289140.63,-27.78,0,0,0,0,0
1562684289156.25,-40.07,0,0,0,0,0
1562684289171.88,-50.74,0,0,0,0,0
1562684289187.5,-56.78,0,0,0,0,0
1562684289203.13,-56.05,0,0,0,0,0
1562684289218.75,-48.15,0,0,0,0,0
1562684289234.38,-34.79,0,0,0,0,0
1562684289250,-19.15,0,0,0,0,0
1562684289265.63,-4.63,0,0,0,0,0
1562684289281.25,6.36,0,0,0,0,0
1562684289296.88,13.16,0,0,0,0,0
1562684289312.5,16.6,0,0,0,0,0
1562684289328.13,18.29,0,0,0,0,0
1562684289343.75,19.67,0,0,0,0,0
1562684289359.38,21.54,0,0,0,0,0
1562684289375,24.05,0,0,0,0,0
1562684289390.63,26.97,0,0,0,0,0
1562684289406.25,29.97,0,0,0,0,0
1562684289421.88,32.56,0,0,0,0,0
1562684289437.5,33.89,0,0,0,0,0
1562684289453.13,32.7,0,0,0,0,0
1562684289468.75,27.59,0,0,0,0,0
1562684289484.38,17.68,0,0,0,0,0
1562684289500,3.43,0,0,0,0,0
1562684289515.63,-12.93,0,0,0,0,0
1562684289531.25,-27.79,0,0,0,0,0
1562684289546.88,-37.17,0,0,0,0,0
1562684289562.5,-38.29,0,0,0,0,0
1562684289578.13,-30.7,0,0,0,0,0
1562684289593.75,-16.72,0,0,0,0,0
1562684289609.38,-0.75,0,0,0,0,0
1562684289625,12.22,0,0,0,0,0
1562684289640.63,18.25,0,0,0,0,0
1562684289656.25,15.63,0,0,0,0,0
1562684289671.88,5.19,0,0,0,0,0
1562684289687.5,-10.24,0,0,0,0,0
1562684289703.13,-26.84,0,0,0,0,0
1562684289718.75,-40.79,0,0,0,0,0
1562684289734.38,-49.21,0,0,0,0,0
1562684289750,-50.64,0,0,0,0,0
1562684289765.63,-45.26,0,0,0,0,0
1562684289781.25,-34.95,0,0,0,0,0
1562684289796.88,-23.08,0,0,0,0,0
1562684289812.5,-13.81,0,0,0,0,0
1562684289828.13,-10.87,0,0,0,0,0
1562684289843.75,-16.11,0,0,0,0,0
1562684289859.38,-28.37,0,0,0,0,0
1562684289875,-43.4,0,0,0,0,0
1562684289890.63,-55.1,0,0,0,0,0
1562684289906.25,-57.76,0,0,0,0,0
1562684289921.88,-48.36,0,0,0,0,0
1562684289937.5,-27.79,0,0,0,0,0
1562684289953.13,-0.55,0,0,0,0,0
1562684289968.75,26.99,0,0,0,0,0
1562684289984.38,48.88,0,0,0,0,0
1562684290000,61.4,0,0,0,0,0
1562684290015.63,63.57,0,0,0,0,0
1562684290031.25,56.62,0,0,0,0,0
1562684290046.88,42.91,0,0,0,0,0
1562684290062.5,24.92,0,0,0,0,0
1562684290078.13,4.84,0,0,0,0,0
1562684290093.75,-15.42,0,0,0,0,0
1562684290109.38,-34.26,0,0,0,0,0
1562684290125,-50.52,0,0,0,0,0
1562684290140.63,-63.86,0,0,0,0,0
1562684290156.25,-74.78,0,0,0,0,0
1562684290171.88,-83.98,0,0,0,0,0
1562684290187.5,-91.59,0,0,0,0,0
1562684290203.13,-96.3,0,0,0,0,0
1562684290218.75,-95.32,0,0,0,0,0
1562684290234.38,-85.14,0,0,0,0,0
1562684290250,-62.98,0,0,0,0,0
1562684290265.63,-28.19,0,0,0,0,0
1562684290281.25,16.98,0,0,0,0,0
1562684290296.88,67.55,0,0,0,0,0
1562684290312.5,116.87,0,0,0,0,0
1562684290328.13,158.04,0,0,0,0,0
1562684290343.75,185.45,0,0,0,0,0
1562684290359.38,195.84,0,0,0,0,0
1562684290375,188.9,0,0,0,0,0
1562684290390.63,167.08,0,0,0,0,0
1562684290406.25,134.92,0,0,0,0,0
1562684290421.88,97.82,0,0,0,0,0
1562684290437.5,60.67,0,0,0,0,0
1562684290453.13,26.93,0,0,0,0,0
1562684290468.75,-1.93,0,0,0,0,0
1562684290484.38,-26.33,0,0,0,0,0
1562684290500,-48.04,0,0,0,0,0
1562684290515.63,-69.25,0,0,0,0,0
1562684290531.25,-91.56,0,0,0,0,0
1562684290546.88,-114.89,0,0,0,0,0
1562684290562.5,-136.85,0,0,0,0,0
1562684290578.13,-153.04,0,0,0,0,0
1562684290593.75,-158.35,0,0,0,0,0
1562684290609.38,-149.01,0,0,0,0,0
1562684290625,-124.48,0,0,0,0,0
1562684290640.63,-88.25,0,0,0,0,0
1562684290656.25,-47.08,0,0,0,0,0
1562684290671.88,-9.02,0,0,0,0,0
1562684290687.5,19.05,0,0,0,0,0
1562684290703.13,33.19,0,0,0,0,0
1562684290718.75,33.02,0,0,0,0,0
1562684290734.38,21.23,0,0,0,0,0
1562684290750,2.48,0,0,0,0,0
1562684290765.63,-17.87,0,0,0,0,0
1562684290781.25,-34.75,0,0,0,0,0
1562684290796.88,-44.43,0,0,0,0,0
1562684290812.5,-45.24,0,0,0,0,0
1562684290828.13,-38.13,0,0,0,0,0
1562684290843.75,-26.67,0,0,0,0,0
1562684290859.38,-16.24,0,0,0,0,0
1562684290875,-12.27,0,0,0,0,0
1562684290890.63,-18.18,0,0,0,0,0
1562684290906.25,-33.69,0,0,0,0,0
1562684290921.88,-54.14,0,0,0,0,0
1562684290937.5,-71.63,0,0,0,0,0
1562684290953.13,-77.45,0,0,0,0,0
1562684290968.75,-65.37,0,0,0,0,0
1562684290984.38,-34.1,0,0,0,0,0
1562684291000,11.82,0,0,0,0,0
1562684291015.63,63.51,0,0,0,0,0
1562684291031.25,111.09,0,0,0,0,0
1562684291046.88,147.36,0,0,0,0,0
1562684291062.5,170.13,0,0,0,0,0
1562684291078.13,181.99,0,0,0,0,0
1562684291093.75,187.58,0,0,0,0,0
1562684291109.38,190.06,0,0,0,0,0
1562684291125,188.66,0,0,0,0,0
1562684291140.63,179.02,0,0,0,0,0
1562684291156.25,156.18,0,0,0,0,0
1562684291171.88,118.42,0,0,0,0,0
1562684291187.5,69.59,0,0,0,0,0
1562684291203.13,18.2,0,0,0,0,0
1562684291218.75,-26.21,0,0,0,0,0
1562684291234.38,-57.37,0,0,0,0,0
1562684291250,-74.52,0,0,0,0,0
1562684291265.63,-81.5,0,0,0,0,0
1562684291281.25,-83.42,0,0,0,0,0
1562684291296.88,-83.24,0,0,0,0,0
1562684291312.5,-80.49,0,0,0,0,0
1562684291328.13,-72.54,0,0,0,0,0
1562684291343.75,-57.5,0,0,0,0,0
1562684291359.38,-36.51,0,0,0,0,0
1562684291375,-14.02,0,0,0,0,0
1562684291390.63,4.04,0,0,0,0,0
1562684291406.25,12.96,0,0,0,0,0
1562684291421.88,11.13,0,0,0,0,0
1562684291437.5,0.27,0,0,0,0,0
1562684291453.13,-15.93,0,0,0,0,0
1562684291468.75,-33.72,0,0,0,0,0
1562684291484.38,-50.33,0,0,0,0,0
1562684291500,-63.91,0,0,0,0,0
1562684291515.63,-72.53,0,0,0,0,0
1562684291531.25,-73.41,0,0,0,0,0
1562684291546.88,-63.44,0,0,0,0,0
1562684291562.5,-41.07,0,0,0,0,0
1562684291578.13,-8.56,0,0,0,0,0
1562684291593.75,27.15,0,0,0,0,0
1562684291609.38,56.13,0,0,0,0,0
1562684291625,69.37,0,0,0,0,0
1562684291640.63,63.05,0,0,0,0,0
1562684291656.25,40.67,0,0,0,0,0
1562684291671.88,11.69,0,0,0,0,0
1562684291687.5,-12.36,0,0,0,0,0
1562684291703.13,-22.53,0,0,0,0,0
1562684291718.75,-15.31,0,0,0,0,0
1562684291734.38,7.3,0,0,0,0,0
1562684291750,39.76,0,0,0,0,0
1562684291765.63,75.5,0,0,0,0,0
1562684291781.25,108.65,0,0,0,0,0
1562684291796.88,134.7,0,0,0,0,0
1562684291812.5,150.72,0,0,0,0,0
1562684291828.13,155.45,0,0,0,0,0
1562684291843.75,149.57,0,0,0,0,0
1562684291859.38,135.43,0,0,0,0,0
1562684291875,116.29,0,0,0,0,0
1562684291890.63,95.08,0,0,0,0,0
1562684291906.25,73.48,0,0,0,0,0
1562684291921.88,51.78,0,0,0,0,0
1562684291937.5,29.48,0,0,0,0,0
1562684291953.13,6.23,0,0,0,0,0
1562684291968.75,-17.58,0,0,0,0,0
1562684291984.38,-40.53,0,0,0,0,0
1562684292000,-60.34,0,0,0,0,0
1562684292015.63,-74.3,0,0,0,0,0
1562684292031.25,-79.86,0,0,0,0,0
1562684292046.88,-75.51,0,0,0,0,0
1562684292062.5,-61.47,0,0,0,0,0
1562684292078.13,-40.13,0,0,0,0,0
1562684292093.75,-15.59,0,0,0,0,0
1562684292109.38,7.45,0,0,0,0,0
1562684292125,24.99,0,0,0,0,0
1562684292140.63,34.71,0,0,0,0,0
1562684292156.25,36.14,0,0,0,0,0
1562684292171.88,30.24,0,0,0,0,0
1562684292187.5,18.79,0,0,0,0,0
1562684292203.13,3.87,0,0,0,0,0
1562684292218.75,-12.21,0,0,0,0,0
1562684292234.38,-27.19,0,0,0,0,0
1562684292250,-39.15,0,0,0,0,0
1562684292265.63,-47.35,0,0,0,0,0
1562684292281.25,-52.51,0,0,0,0,0
1562684292296.88,-56.67,0,0,0,0,0
1562684292312.5,-62.01,0,0,0,0,0
1562684292328.13,-69.33,0,0,0,0,0
1562684292343.75,-77.16,0,0,0,0,0
1562684292359.38,-81.87,0,0,0,0,0
1562684292375,-79.31,0,0,0,0,0
1562684292390.63,-66.81,0,0,0,0,0
1562684292406.25,-44.75,0,0,0,0,0
1562684292421.88,-16.61,0,0,0,0,0
1562684292437.5,12.28,0,0,0,0,0
1562684292453.13,36.77,0,0,0,0,0
1562684292468.75,53.33,0,0,0,0,0
1562684292484.38,60.68,0,0,0,0,0
1562684292500,59.21,0,0,0,0,0
1562684292515.63,50.17,0,0,0,0,0
1562684292531.25,35.08,0,0,0,0,0
1562684292546.88,15.7,0,0,0,0,0
1562684292562.5,-5.73,0,0,0,0,0
1562684292578.13,-26.52,0,0,0,0,0
1562684292593.75,-44.13,0,0,0,0,0
1562684292609.38,-57.12,0,0,0,0,0
1562684292625,-65.86,0,0,0,0,0
1562684292640.63,-72.41,0,0,0,0,0
1562684292656.25,-79.47,0,0,0,0,0
1562684292671.88,-88.7,0,0,0,0,0
1562684292687.5,-99.34,0,0,0,0,0
1562684292703.13,-108.1,0,0,0,0,0
1562684292718.75,-110.34,0,0,0,0,0
1562684292734.38,-102.16,0,0,0,0,0
1562684292750,-82.32,0,0,0,0,0
1562684292765.63,-53.12,0,0,0,0,0
1562684292781.25,-19.71,0,0,0,0,0
1562684292796.88,11.71,0,0,0,0,0
1562684292812.5,35.86,0,0,0,0,0
1562684292828.13,49.72,0,0,0,0,0
1562684292843.75,52.66,0,0,0,0,0
1562684292859.38,45.85,0,0,0,0,0
1562684292875,31.36,0,0,0,0,0
1562684292890.63,11.73,0,0,0,0,0
1562684292906.25,-10.1,0,0,0,0,0
1562684292921.88,-30.66,0,0,0,0,0
1562684292937.5,-46.45,0,0,0,0,0
1562684292953.13,-54.98,0,0,0,0,0
1562684292968.75,-56.02,0,0,0,0,0
1562684292984.38,-52.08,0,0,0,0,0
1562684293000,-47.54,0,0,0,0,0
1562684293015.63,-46.61,0,0,0,0,0
1562684293031.25,-50.89,0,0,0,0,0
1562684293046.88,-58.28,0,0,0,0,0
1562684293062.5,-63.59,0,0,0,0,0
1562684293078.13,-60.89,0,0,0,0,0
1562684293093.75,-46.46,0,0,0,0,0
1562684293109.38,-20.62,0,0,0,0,0
1562684293125,12.07,0,0,0,0,0
1562684293140.63,44.84,0,0,0,0,0
1562684293156.25,71.21,0,0,0,0,0
1562684293171.88,87.39,0,0,0,0,0
1562684293187.5,93.18,0,0,0,0,0
1562684293203.13,91.3,0,0,0,0,0
1562684293218.75,85.89,0,0,0,0,0
1562684293234.38,80.7,0,0,0,0,0
1562684293250,77.82,0,0,0,0,0
1562684293265.63,77.09,0,0,0,0,0
1562684293281.25,76.23,0,0,0,0,0
1562684293296.88,71.54,0,0,0,0,0
1562684293312.5,59.22,0,0,0,0,0
1562684293328.13,36.8,0,0,0,0,0
1562684293343.75,4.6,0,0,0,0,0
1562684293359.38,-33.55,0,0,0,0,0
1562684293375,-70.79,0,0,0,0,0
1562684293390.63,-98.66,0,0,0,0,0
1562684293406.25,-109.37,0,0,0,0,0
1562684293421.88,-97.91,0,0,0,0,0
1562684293437.5,-63.55,0,0,0,0,0
1562684293453.13,-10.31,0,0,0,0,0
1562684293468.75,53.74,0,0,0,0,0
1562684293484.38,118.15,0,0,0,0,0
1562684293500,172.54,0,0,0,0,0
1562684293515.63,209.16,0,0,0,0,0
1562684293531.25,224.67,0,0,0,0,0
1562684293546.88,220.56,0,0,0,0,0
1562684293562.5,201.72,0,0,0,0,0
1562684293578.13,173.98,0,0,0,0,0
1562684293593.75,141.58,0,0,0,0,0
1562684293609.38,106.19,0,0,0,0,0
1562684293625,67.65,0,0,0,0,0
1562684293640.63,26,0,0,0,0,0
1562684293656.25,-17.04,0,0,0,0,0
1562684293671.88,-57.91,0,0,0,0,0
1562684293687.5,-92.6,0,0,0,0,0
1562684293703.13,-118.34,0,0,0,0,0
1562684293718.75,-134.28,0,0,0,0,0
1562684293734.38,-140.81,0,0,0,0,0
1562684293750,-138.16,0,0,0,0,0
1562684293765.63,-125.78,0,0,0,0,0
1562684293781.25,-103.01,0,0,0,0,0
1562684293796.88,-70.66,0,0,0,0,0
1562684293812.5,-32.24,0,0,0,0,0
1562684293828.13,6.28,0,0,0,0,0
1562684293843.75,38.23,0,0,0,0,0
1562684293859.38,58.69,0,0,0,0,0
1562684293875,66.25,0,0,0,0,0
1562684293890.63,63.09,0,0,0,0,0
1562684293906.25,53.82,0,0,0,0,0
1562684293921.88,43.43,0,0,0,0,0
1562684293937.5,35.79,0,0,0,0,0
1562684293953.13,32.85,0,0,0,0,0
1562684293968.75,34.55,0,0,0,0,0
1562684293984.38,39.34,0,0,0,0,0
1562684294000,44.58,0,0,0,0,0
1562684294015.63,47.13,0,0,0,0,0
1562684294031.25,43.94,0,0,0,0,0
1562684294046.88,32.86,0,0,0,0,0
1562684294062.5,13.6,0,0,0,0,0
1562684294078.13,-11.75,0,0,0,0,0
1562684294093.75,-38.76,0,0,0,0,0
1562684294109.38,-61.76,0,0,0,0,0
1562684294125,-75.64,0,0,0,0,0
1562684294140.63,-77.47,0,0,0,0,0
1562684294156.25,-67.46,0,0,0,0,0
1562684294171.88,-48.66,0,0,0,0,0
1562684294187.5,-25.43,0,0,0,0,0
1562684294203.13,-1.8,0,0,0,0,0
1562684294218.75,19.8,0,0,0,0,0
1562684294234.38,38.69,0,0,0,0,0
1562684294250,55,0,0,0,0,0
1562684294265.63,68.7,0,0,0,0,0
1562684294281.25,78.86,0,0,0,0,0
1562684294296.88,84.05,0,0,0,0,0
1562684294312.5,83.11,0,0,0,0,0
1562684294328.13,76.14,0,0,0,0,0
1562684294343.75,64.68,0,0,0,0,0
1562684294359.38,51.08,0,0,0,0,0
1562684294375,37.27,0,0,0,0,0
1562684294390.63,23.79,0,0,0,0,0
1562684294406.25,9.84,0,0,0,0,0
1562684294421.88,-5.89,0,0,0,0,0
1562684294437.5,-23.62,0,0,0,0,0
1562684294453.13,-41.57,0,0,0,0,0
1562684294468.75,-56.1,0,0,0,0,0
1562684294484.38,-63.31,0,0,0,0,0
1562684294500,-61.02,0,0,0,0,0
1562684294515.63,-50.1,0,0,0,0,0
1562684294531.25,-34.42,0,0,0,0,0
1562684294546.88,-19.27,0,0,0,0,0
1562684294562.5,-9.15,0,0,0,0,0
1562684294578.13,-6.02,0,0,0,0,0
1562684294593.75,-8.93,0,0,0,0,0
1562684294609.38,-14.9,0,0,0,0,0
1562684294625,-20.53,0,0,0,0,0
1562684294640.63,-23.37,0,0,0,0,0
1562684294656.25,-22.58,0,0,0,0,0
1562684294671.88,-18.77,0,0,0,0,0
1562684294687.5,-13.47,0,0,0,0,0
1562684294703.13,-8.57,0,0,0,0,0
1562684294718.75,-5.95,0,0,0,0,0
1562684294734.38,-7.17,0,0,0,0,0
1562684294750,-13.02,0,0,0,0,0
1562684294765.63,-23.01,0,0,0,0,0
1562684294781.25,-35.08,0,0,0,0,0
1562684294796.88,-45.85,0,0,0,0,0
1562684294812.5,-51.54,0,0,0,0,0
1562684294828.13,-49.28,0,0,0,0,0
1562684294843.75,-38.32,0,0,0,0,0
1562684294859.38,-20.45,0,0,0,0,0
1562684294875,0.53,0,0,0,0,0
1562684294890.63,20.07,0,0,0,0,0
1562684294906.25,34.38,0,0,0,0,0
1562684294921.88,41.32,0,0,0,0,0
1562684294937.5,40.63,0,0,0,0,0
1562684294953.13,33.32,0,0,0,0,0
1562684294968.75,21.04,0,0,0,0,0
1562684294984.38,5.45,0,0,0,0,0
1562684295000,-11.9,0,0,0,0,0
1562684295015.63,-29.39,0,0,0,0,0
1562684295031.25,-45.31,0,0,0,0,0
1562684295046.88,-57.89,0,0,0,0,0
1562684295062.5,-65.78,0,0,0,0,0
1562684295078.13,-68.45,0,0,0,0,0
1562684295093.75,-66.34,0,0,0,0,0
1562684295109.38,-60.58,0,0,0,0,0
1562684295125,-52.33,0,0,0,0,0
1562684295140.63,-42.07,0,0,0,0,0
1562684295156.25,-29.37,0,0,0,0,0
1562684295171.88,-13.22,0,0,0,0,0
1562684295187.5,7.04,0,0,0,0,0
1562684295203.13,30.92,0,0,0,0,0
1562684295218.75,56.38,0,0,0,0,0
1562684295234.38,80.09,0,0,0,0,0
1562684295250,98.43,0,0,0,0,0
1562684295265.63,108.36,0,0,0,0,0
1562684295281.25,108.17,0,0,0,0,0
1562684295296.88,97.62,0,0,0,0,0
1562684295312.5,77.68,0,0,0,0,0
1562684295328.13,50.14,0,0,0,0,0
1562684295343.75,17.38,0,0,0,0,0
1562684295359.38,-17.85,0,0,0,0,0
1562684295375,-52.48,0,0,0,0,0
1562684295390.63,-83.37,0,0,0,0,0
1562684295406.25,-107.7,0,0,0,0,0
1562684295421.88,-123.6,0,0,0,0,0
1562684295437.5,-130.54,0,0,0,0,0
1562684295453.13,-129.43,0,0,0,0,0
1562684295468.75,-122.18,0,0,0,0,0
1562684295484.38,-110.79,0,0,0,0,0
1562684295500,-96.48,0,0,0,0,0
1562684295515.63,-79.35,0,0,0,0,0
1562684295531.25,-58.69,0,0,0,0,0
1562684295546.88,-34.04,0,0,0,0,0
1562684295562.5,-6.07,0,0,0,0,0
1562684295578.13,23.03,0,0,0,0,0
1562684295593.75,49.97,0,0,0,0,0
1562684295609.38,71.58,0,0,0,0,0
1562684295625,85.9,0,0,0,0,0
1562684295640.63,92.69,0,0,0,0,0
1562684295656.25,93.08,0,0,0,0,0
1562684295671.88,88.7,0,0,0,0,0
1562684295687.5,80.82,0,0,0,0,0
1562684295703.13,69.98,0,0,0,0,0
1562684295718.75,56.24,0,0,0,0,0
1562684295734.38,39.55,0,0,0,0,0
1562684295750,20.16,0,0,0,0,0
1562684295765.63,-1.51,0,0,0,0,0
1562684295781.25,-25.06,0,0,0,0,0
1562684295796.88,-50.09,0,0,0,0,0
1562684295812.5,-75.7,0,0,0,0,0
1562684295828.13,-99.81,0,0,0,0,0
1562684295843.75,-118.73,0,0,0,0,0
1562684295859.38,-127.66,0,0,0,0,0
1562684295875,-122.22,0,0,0,0,0
1562684295890.63,-100.28,0,0,0,0,0
1562684295906.25,-63.32,0,0,0,0,0
1562684295921.88,-16.47,0,0,0,0,0
1562684295937.5,32.85,0,0,0,0,0
1562684295953.13,77.17,0,0,0,0,0
1562684295968.75,111.07,0,0,0,0,0
1562684295984.38,132.15,0,0,0,0,0
1562684296000,140.98,0,0,0,0,0
1562684296015.63,140.04,0,0,0,0,0
1562684296031.25,132.44,0,0,0,0,0
1562684296046.88,120.87,0,0,0,0,0
1562684296062.5,107.05,0,0,0,0,0
1562684296078.13,91.54,0,0,0,0,0
1562684296093.75,73.94,0,0,0,0,0
1562684296109.38,53.12,0,0,0,0,0
1562684296125,27.71,0,0,0,0,0
1562684296140.63,-3.21,0,0,0,0,0
1562684296156.25,-39.37,0,0,0,0,0
1562684296171.88,-78.61,0,0,0,0,0
1562684296187.5,-116.52,0,0,0,0,0
1562684296203.13,-146.84,0,0,0,0,0
1562684296218.75,-162.76,0,0,0,0,0
1562684296234.38,-159.09,0,0,0,0,0
1562684296250,-134.35,0,0,0,0,0
1562684296265.63,-91.98,0,0,0,0,0
1562684296281.25,-39.82,0,0,0,0,0
1562684296296.88,11.99,0,0,0,0,0
1562684296312.5,54.05,0,0,0,0,0
1562684296328.13,80.2,0,0,0,0,0
1562684296343.75,88.71,0,0,0,0,0
1562684296359.38,81.64,0,0,0,0,0
1562684296375,63.26,0,0,0,0,0
1562684296390.63,38.25,0,0,0,0,0
1562684296406.25,10.69,0,0,0,0,0
1562684296421.88,-16.22,0,0,0,0,0
1562684296437.5,-39.79,0,0,0,0,0
1562684296453.13,-57.92,0,0,0,0,0
1562684296468.75,-69.43,0,0,0,0,0
1562684296484.38,-74.73,0,0,0,0,0
1562684296500,-76.06,0,0,0,0,0
1562684296515.63,-76.81,0,0,0,0,0
1562684296531.25,-80.09,0,0,0,0,0
1562684296546.88,-86.97,0,0,0,0,0
1562684296562.5,-95.54,0,0,0,0,0
1562684296578.13,-101.22,0,0,0,0,0
1562684296593.75,-98.17,0,0,0,0,0
1562684296609.38,-81.57,0,0,0,0,0
1562684296625,-49.56,0,0,0,0,0
1562684296640.63,-4.29,0,0,0,0,0
1562684296656.25,48.43,0,0,0,0,0
1562684296671.88,100.67,0,0,0,0,0
1562684296687.5,144.52,0,0,0,0,0
1562684296703.13,174.09,0,0,0,0,0
1562684296718.75,186.77,0,0,0,0,0
1562684296734.38,183.36,0,0,0,0,0
1562684296750,167.25,0,0,0,0,0
1562684296765.63,142.96,0,0,0,0,0
1562684296781.25,114.8,0,0,0,0,0
1562684296796.88,85.95,0,0,0,0,0
1562684296812.5,58.18,0,0,0,0,0
1562684296828.13,32.03,0,0,0,0,0
1562684296843.75,7.26,0,0,0,0,0
1562684296859.38,-16.6,0,0,0,0,0
1562684296875,-39.79,0,0,0,0,0
1562684296890.63,-61.74,0,0,0,0,0
1562684296906.25,-80.74,0,0,0,0,0
1562684296921.88,-94.16,0,0,0,0,0
1562684296937.5,-99.27,0,0,0,0,0
1562684296953.13,-94.4,0,0,0,0,0
1562684296968.75,-79.84,0,0,0,0,0
1562684296984.38,-58.14,0,0,0,0,0
1562684297000,-33.23,0,0,0,0,0
1562684297015.63,-9.26,0,0,0,0,0
1562684297031.25,10.7,0,0,0,0,0
1562684297046.88,25.2,0,0,0,0,0
1562684297062.5,34.2,0,0,0,0,0
1562684297078.13,38.29,0,0,0,0,0
1562684297093.75,38.11,0,0,0,0,0
1562684297109.38,34.07,0,0,0,0,0
1562684297125,26.52,0,0,0,0,0
1562684297140.63,16.13,0,0,0,0,0
1562684297156.25,3.9,0,0,0,0,0
1562684297171.88,-9.03,0,0,0,0,0
1562684297187.5,-21.69,0,0,0,0,0
1562684297203.13,-33.46,0,0,0,0,0
1562684297218.75,-43.68,0,0,0,0,0
1562684297234.38,-51.17,0,0,0,0,0
1562684297250,-53.96,0,0,0,0,0
1562684297265.63,-49.61,0,0,0,0,0
1562684297281.25,-36.3,0,0,0,0,0
1562684297296.88,-14.01,0,0,0,0,0
1562684297312.5,14.67,0,0,0,0,0
1562684297328.13,44.85,0,0,0,0,0
1562684297343.75,70.74,0,0,0,0,0
1562684297359.38,87.55,0,0,0,0,0
1562684297375,92.91,0,0,0,0,0
1562684297390.63,87.28,0,0,0,0,0
1562684297406.25,73.35,0,0,0,0,0
1562684297421.88,54.56,0,0,0,0,0
1562684297437.5,33.95,0,0,0,0,0
1562684297453.13,13.53,0,0,0,0,0
1562684297468.75,-5.69,0,0,0,0,0
1562684297484.38,-23.3,0,0,0,0,0
1562684297500,-38.93,0,0,0,0,0
1562684297515.63,-52.17,0,0,0,0,0
1562684297531.25,-62.75,0,0,0,0,0
1562684297546.88,-70.65,0,0,0,0,0
1562684297562.5,-75.98,0,0,0,0,0
1562684297578.13,-78.55,0,0,0,0,0
1562684297593.75,-77.41,0,0,0,0,0
1562684297609.38,-70.74,0,0,0,0,0
1562684297625,-56.58,0,0,0,0,0
1562684297640.63,-34.01,0,0,0,0,0
1562684297656.25,-4.35,0,0,0,0,0
1562684297671.88,28.56,0,0,0,0,0
1562684297687.5,59.11,0,0,0,0,0
1562684297703.13,81.78,0,0,0,0,0
1562684297718.75,92.9,0,0,0,0,0
1562684297734.38,91.72,0,0,0,0,0
1562684297750,80.15,0,0,0,0,0
1562684297765.63,61.65,0,0,0,0,0
1562684297781.25,39.7,0,0,0,0,0
1562684297796.88,16.82,0,0,0,0,0
1562684297812.5,-5.53,0,0,0,0,0
1562684297828.13,-26.61,0,0,0,0,0
1562684297843.75,-45.87,0,0,0,0,0
1562684297859.38,-62.78,0,0,0,0,0
1562684297875,-77.14,0,0,0,0,0
1562684297890.63,-89.39,0,0,0,0,0
1562684297906.25,-100.46,0,0,0,0,0
1562684297921.88,-111.12,0,0,0,0,0
1562684297937.5,-120.96,0,0,0,0,0
1562684297953.13,-127.81,0,0,0,0,0
1562684297968.75,-127.98,0,0,0,0,0
1562684297984.38,-117.64,0,0,0,0,0
1562684298000,-94.58,0,0,0,0,0
1562684298015.63,-59.67,0,0,0,0,0
1562684298031.25,-17.03,0,0,0,0,0
1562684298046.88,27.03,0,0,0,0,0
1562684298062.5,66.07,0,0,0,0,0
1562684298078.13,95.48,0,0,0,0,0
1562684298093.75,113.41,0,0,0,0,0
1562684298109.38,120.54,0,0,0,0,0
1562684298125,118.88,0,0,0,0,0
1562684298140.63,110.56,0,0,0,0,0
1562684298156.25,97.11,0,0,0,0,0
1562684298171.88,79.34,0,0,0,0,0
1562684298187.5,57.86,0,0,0,0,0
1562684298203.13,33.37,0,0,0,0,0
1562684298218.75,6.67,0,0,0,0,0
1562684298234.38,-21.54,0,0,0,0,0
1562684298250,-50.72,0,0,0,0,0
1562684298265.63,-80,0,0,0,0,0
1562684298281.25,-107.55,0,0,0,0,0
1562684298296.88,-129.93,0,0,0,0,0
1562684298312.5,-142.23,0,0,0,0,0
1562684298328.13,-139.37,0,0,0,0,0
1562684298343.75,-117.98,0,0,0,0,0
1562684298359.38,-78.22,0,0,0,0,0
1562684298375,-24.53,0,0,0,0,0
1562684298390.63,35.2,0,0,0,0,0
1562684298406.25,91.84,0,0,0,0,0
1562684298421.88,137.51,0,0,0,0,0
1562684298437.5,167.48,0,0,0,0,0
1562684298453.13,180.81,0,0,0,0,0
1562684298468.75,179.62,0,0,0,0,0
1562684298484.38,167.74,0,0,0,0,0
1562684298500,149.25,0,0,0,0,0
1562684298515.63,127.53,0,0,0,0,0
1562684298531.25,104.92,0,0,0,0,0
1562684298546.88,82.69,0,0,0,0,0
1562684298562.5,61.25,0,0,0,0,0
1562684298578.13,40.26,0,0,0,0,0
1562684298593.75,18.79,0,0,0,0,0
1562684298609.38,-4.41,0,0,0,0,0
1562684298625,-30.07,0,0,0,0,0
1562684298640.63,-57.55,0,0,0,0,0
1562684298656.25,-84.24,0,0,0,0,0
1562684298671.88,-105.82,0,0,0,0,0
1562684298687.5,-117.53,0,0,0,0,0
1562684298703.13,-115.96,0,0,0,0,0
1562684298718.75,-100.58,0,0,0,0,0
1562684298734.38,-74.15,0,0,0,0,0
1562684298750,-41.78,0,0,0,0,0
1562684298765.63,-9.06,0,0,0,0,0
1562684298781.25,19.72,0,0,0,0,0
1562684298796.88,42.41,0,0,0,0,0
1562684298812.5,58.68,0,0,0,0,0
1562684298828.13,68.99,0,0,0,0,0
1562684298843.75,73.6,0,0,0,0,0
1562684298859.38,72.3,0,0,0,0,0
1562684298875,64.87,0,0,0,0,0
1562684298890.63,51.76,0,0,0,0,0
1562684298906.25,34.47,0,0,0,0,0
1562684298921.88,15.25,0,0,0,0,0
1562684298937.5,-3.65,0,0,0,0,0
1562684298953.13,-20.69,0,0,0,0,0
1562684298968.75,-35.14,0,0,0,0,0
1562684298984.38,-46.68,0,0,0,0,0
1562684299000,-54.62,0,0,0,0,0
1562684299015.63,-57.63,0,0,0,0,0
1562684299031.25,-54.03,0,0,0,0,0
1562684299046.88,-42.83,0,0,0,0,0
1562684299062.5,-24.77,0,0,0,0,0
1562684299078.13,-2.74,0,0,0,0,0
1562684299093.75,18.83,0,0,0,0,0
1562684299109.38,35.3,0,0,0,0,0
1562684299125,43.41,0,0,0,0,0
1562684299140.63,42.2,0,0,0,0,0
1562684299156.25,33.04,0,0,0,0,0
1562684299171.88,18.74,0,0,0,0,0
1562684299187.5,2.48,0,0,0,0,0
1562684299203.13,-13.1,0,0,0,0,0
1562684299218.75,-26.15,0,0,0,0,0
1562684299234.38,-35.49,0,0,0,0,0
1562684299250,-40.29,0,0,0,0,0
1562684299265.63,-40.19,0,0,0,0,0
1562684299281.25,-35.51,0,0,0,0,0
1562684299296.88,-27.48,0,0,0,0,0
1562684299312.5,-18.2,0,0,0,0,0
1562684299328.13,-9.86,0,0,0,0,0
1562684299343.75,-3.8,0,0,0,0,0
1562684299359.38,0.34,0,0,0,0,0
1562684299375,4.64,0,0,0,0,0
1562684299390.63,11.96,0,0,0,0,0
1562684299406.25,24.41,0,0,0,0,0
1562684299421.88,42.01,0,0,0,0,0
1562684299437.5,62.22,0,0,0,0,0
1562684299453.13,80.78,0,0,0,0,0
1562684299468.75,93.3,0,0,0,0,0
1562684299484.38,96.9,0,0,0,0,0
1562684299500,91.04,0,0,0,0,0
1562684299515.63,77.37,0,0,0,0,0
1562684299531.25,58.59,0,0,0,0,0
1562684299546.88,37.31,0,0,0,0,0
1562684299562.5,15.32,0,0,0,0,0
1562684299578.13,-6.51,0,0,0,0,0
1562684299593.75,-27.81,0,0,0,0,0
1562684299609.38,-48.22,0,0,0,0,0
1562684299625,-67.25,0,0,0,0,0
1562684299640.63,-84.55,0,0,0,0,0
1562684299656.25,-100.08,0,0,0,0,0
1562684299671.88,-114.02,0,0,0,0,0
1562684299687.5,-126.27,0,0,0,0,0
1562684299703.13,-135.77,0,0,0,0,0
1562684299718.75,-140.23,0,0,0,0,0
1562684299734.38,-136.64,0,0,0,0,0
1562684299750,-122.54,0,0,0,0,0
1562684299765.63,-97.37,0,0,0,0,0
1562684299781.25,-63.25,0,0,0,0,0
1562684299796.88,-24.63,0,0,0,0,0
1562684299812.5,13.06,0,0,0,0,0
1562684299828.13,45.1,0,0,0,0,0
1562684299843.75,68.75,0,0,0,0,0
1562684299859.38,83.6,0,0,0,0,0
1562684299875,91.01,0,0,0,0,0
1562684299890.63,92.9,0,0,0,0,0
1562684299906.25,90.86,0,0,0,0,0
1562684299921.88,85.66,0,0,0,0,0
1562684299937.5,77.34,0,0,0,0,0
1562684299953.13,65.56,0,0,0,0,0
1562684299968.75,49.96,0,0,0,0,0
1562684299984.38,30.27,0,0,0,0,0
1562684300000,6.32,0,0,0,0,0
1562684300015.63,-21.76,0,0,0,0,0
1562684300031.25,-53.03,0,0,0,0,0
1562684300046.88,-85.14,0,0,0,0,0
1562684300062.5,-114.02,0,0,0,0,0
1562684300078.13,-134.32,0,0,0,0,0
1562684300093.75,-140.87,0,0,0,0,0
1562684300109.38,-130.49,0,0,0,0,0
1562684300125,-103.43,0,0,0,0,0
1562684300140.63,-63.75,0,0,0,0,0
1562684300156.25,-18.14,0,0,0,0,0
1562684300171.88,26.13,0,0,0,0,0
1562684300187.5,63.28,0,0,0,0,0
1562684300203.13,90.18,0,0,0,0,0
1562684300218.75,106.37,0,0,0,0,0
1562684300234.38,113.14,0,0,0,0,0
1562684300250,112.38,0,0,0,0,0
1562684300265.63,105.92,0,0,0,0,0
1562684300281.25,95.38,0,0,0,0,0
1562684300296.88,82.24,0,0,0,0,0
1562684300312.5,67.95,0,0,0,0,0
1562684300328.13,53.58,0,0,0,0,0
1562684300343.75,39.38,0,0,0,0,0
1562684300359.38,24.55,0,0,0,0,0
1562684300375,7.56,0,0,0,0,0
1562684300390.63,-12.78,0,0,0,0,0
1562684300406.25,-35.98,0,0,0,0,0
1562684300421.88,-59.12,0,0,0,0,0
1562684300437.5,-77.28,0,0,0,0,0
1562684300453.13,-85.15,0,0,0,0,0
1562684300468.75,-79.38,0,0,0,0,0
1562684300484.38,-60.25,0,0,0,0,0
1562684300500,-31.91,0,0,0,0,0
1562684300515.63,-0.93,0,0,0,0,0
1562684300531.25,26.2,0,0,0,0,0
1562684300546.88,45.3,0,0,0,0,0
1562684300562.5,55.53,0,0,0,0,0
1562684300578.13,58.78,0,0,0,0,0
1562684300593.75,58.06,0,0,0,0,0
1562684300609.38,55.8,0,0,0,0,0
1562684300625,52.89,0,0,0,0,0
1562684300640.63,48.79,0,0,0,0,0
1562684300656.25,42.33,0,0,0,0,0
1562684300671.88,32.53,0,0,0,0,0
1562684300687.5,19.05,0,0,0,0,0
1562684300703.13,2.15,0,0,0,0,0
1562684300718.75,-17.38,0,0,0,0,0
1562684300734.38,-38.08,0,0,0,0,0
1562684300750,-57.55,0,0,0,0,0
1562684300765.63,-72.35,0,0,0,0,0
1562684300781.25,-78.53,0,0,0,0,0
1562684300796.88,-72.86,0,0,0,0,0
1562684300812.5,-54.39,0,0,0,0,0
1562684300828.13,-25.35,0,0,0,0,0
1562684300843.75,9.02,0,0,0,0,0
1562684300859.38,41.97,0,0,0,0,0
1562684300875,67.29,0,0,0,0,0
1562684300890.63,81.08,0,0,0,0,0
1562684300906.25,82.53,0,0,0,0,0
1562684300921.88,73.44,0,0,0,0,0
1562684300937.5,57.02,0,0,0,0,0
1562684300953.13,36.58,0,0,0,0,0
1562684300968.75,14.77,0,0,0,0,0
1562684300984.38,-6.53,0,0,0,0,0
1562684301000,-26.01,0,0,0,0,0
1562684301015.63,-42.61,0,0,0,0,0
1562684301031.25,-55.47,0,0,0,0,0
1562684301046.88,-64.17,0,0,0,0,0
1562684301062.5,-68.86,0,0,0,0,0
1562684301078.13,-70.22,0,0,0,0,0
1562684301093.75,-69.01,0,0,0,0,0
1562684301109.38,-65.48,0,0,0,0,0
1562684301125,-58.9,0,0,0,0,0
1562684301140.63,-47.75,0,0,0,0,0
1562684301156.25,-30.49,0,0,0,0,0
1562684301171.88,-6.58,0,0,0,0,0
1562684301187.5,22.81,0,0,0,0,0
1562684301203.13,54.78,0,0,0,0,0
1562684301218.75,85.36,0,0,0,0,0
1562684301234.38,110.6,0,0,0,0,0
1562684301250,127.49,0,0,0,0,0
1562684301265.63,134.31,0,0,0,0,0
1562684301281.25,130.59,0,0,0,0,0
1562684301296.88,116.92,0,0,0,0,0
1562684301312.5,94.65,0,0,0,0,0
1562684301328.13,65.89,0,0,0,0,0
1562684301343.75,33.28,0,0,0,0,0
1562684301359.38,-0.28,0,0,0,0,0
1562684301375,-32.19,0,0,0,0,0
1562684301390.63,-60.62,0,0,0,0,0
1562684301406.25,-84.9,0,0,0,0,0
1562684301421.88,-105.37,0,0,0,0,0
1562684301437.5,-122.75,0,0,0,0,0
1562684301453.13,-137.31,0,0,0,0,0
1562684301468.75,-148.12,0,0,0,0,0
1562684301484.38,-152.98,0,0,0,0,0
1562684301500,-149.06,0,0,0,0,0
1562684301515.63,-134.25,0,0,0,0,0
1562684301531.25,-108.48,0,0,0,0,0
1562684301546.88,-74.31,0,0,0,0,0
1562684301562.5,-36.56,0,0,0,0,0
1562684301578.13,-0.82,0,0,0,0,0
1562684301593.75,28.22,0,0,0,0,0
1562684301609.38,48.06,0,0,0,0,0
1562684301625,58.64,0,0,0,0,0
1562684301640.63,61.68,0,0,0,0,0
1562684301656.25,59.46,0,0,0,0,0
1562684301671.88,53.81,0,0,0,0,0
1562684301687.5,45.69,0,0,0,0,0
1562684301703.13,35.34,0,0,0,0,0
1562684301718.75,22.76,0,0,0,0,0
1562684301734.38,8,0,0,0,0,0
1562684301750,-8.87,0,0,0,0,0
1562684301765.63,-28.04,0,0,0,0,0
1562684301781.25,-49.93,0,0,0,0,0
1562684301796.88,-74.64,0,0,0,0,0
1562684301812.5,-100.99,0,0,0,0,0
1562684301828.13,-125.69,0,0,0,0,0
1562684301843.75,-143.44,0,0,0,0,0
1562684301859.38,-148.29,0,0,0,0,0
1562684301875,-135.88,0,0,0,0,0
1562684301890.63,-105.59,0,0,0,0,0
1562684301906.25,-61.31,0,0,0,0,0
1562684301921.88,-10.45,0,0,0,0,0
1562684301937.5,38.47,0,0,0,0,0
1562684301953.13,78.54,0,0,0,0,0
1562684301968.75,106.16,0,0,0,0,0
1562684301984.38,121.1,0,0,0,0,0
1562684302000,125.46,0,0,0,0,0
1562684302015.63,121.97,0,0,0,0,0
1562684302031.25,113.03,0,0,0,0,0
1562684302046.88,100.39,0,0,0,0,0
1562684302062.5,85.55,0,0,0,0,0
1562684302078.13,70.03,0,0,0,0,0
1562684302093.75,55.28,0,0,0,0,0
1562684302109.38,41.94,0,0,0,0,0
1562684302125,29.29,0,0,0,0,0
1562684302140.63,15.32,0,0,0,0,0
1562684302156.25,-2.3,0,0,0,0,0
1562684302171.88,-24.44,0,0,0,0,0
1562684302187.5,-49.15,0,0,0,0,0
1562684302203.13,-71.66,0,0,0,0,0
1562684302218.75,-85.81,0,0,0,0,0
1562684302234.38,-86.64,0,0,0,0,0
1562684302250,-72.68,0,0,0,0,0
1562684302265.63,-46.78,0,0,0,0,0
1562684302281.25,-14.93,0,0,0,0,0
1562684302296.88,16.14,0,0,0,0,0
1562684302312.5,41.5,0,0,0,0,0
1562684302328.13,59.2,0,0,0,0,0
1562684302343.75,69.98,0,0,0,0,0
1562684302359.38,75.68,0,0,0,0,0
1562684302375,77.63,0,0,0,0,0
1562684302390.63,75.98,0,0,0,0,0
1562684302406.25,69.89,0,0,0,0,0
1562684302421.88,58.52,0,0,0,0,0
1562684302437.5,41.91,0,0,0,0,0
1562684302453.13,21.22,0,0,0,0,0
1562684302468.75,-1.64,0,0,0,0,0
1562684302484.38,-24.5,0,0,0,0,0
1562684302500,-45.15,0,0,0,0,0
1562684302515.63,-61.36,0,0,0,0,0
1562684302531.25,-70.63,0,0,0,0,0
1562684302546.88,-70.45,0,0,0,0,0
1562684302562.5,-59.13,0,0,0,0,0
1562684302578.13,-36.81,0,0,0,0,0
1562684302593.75,-6.18,0,0,0,0,0
1562684302609.38,27.81,0,0,0,0,0
1562684302625,59.19,0,0,0,0,0
1562684302640.63,82.79,0,0,0,0,0
1562684302656.25,95.76,0,0,0,0,0
1562684302671.88,98.06,0,0,0,0,0
1562684302687.5,91.98,0,0,0,0,0
1562684302703.13,80.9,0,0,0,0,0
1562684302718.75,68.1,0,0,0,0,0
1562684302734.38,55.93,0,0,0,0,0
1562684302750,45.7,0,0,0,0,0
1562684302765.63,37.76,0,0,0,0,0
1562684302781.25,31.78,0,0,0,0,0
1562684302796.88,27.04,0,0,0,0,0
1562684302812.5,22.58,0,0,0,0,0
1562684302828.13,17.45,0,0,0,0,0
1562684302843.75,10.89,0,0,0,0,0
1562684302859.38,2.59,0,0,0,0,0
1562684302875,-7.06,0,0,0,0,0
1562684302890.63,-16.7,0,0,0,0,0
1562684302906.25,-24.08,0,0,0,0,0
1562684302921.88,-26.5,0,0,0,0,0
1562684302937.5,-21.75,0,0,0,0,0
1562684302953.13,-9.17,0,0,0,0,0
1562684302968.75,9.72,0,0,0,0,0
1562684302984.38,31.42,0,0,0,0,0
1562684303000,51.47,0,0,0,0,0
1562684303015.63,65.95,0,0,0,0,0
1562684303031.25,72.69,0,0,0,0,0
1562684303046.88,71.61,0,0,0,0,0
1562684303062.5,64.2,0,0,0,0,0
1562684303078.13,52.57,0,0,0,0,0
1562684303093.75,38.47,0,0,0,0,0
1562684303109.38,22.96,0,0,0,0,0
1562684303125,6.64,0,0,0,0,0
1562684303140.63,-9.99,0,0,0,0,0
1562684303156.25,-26.25,0,0,0,0,0
1562684303171.88,-41.3,0,0,0,0,0
1562684303187.5,-54.57,0,0,0,0,0
1562684303203.13,-65.97,0,0,0,0,0
1562684303218.75,-76.09,0,0,0,0,0
1562684303234.38,-85.86,0,0,0,0,0
1562684303250,-95.83,0,0,0,0,0
1562684303265.63,-105.49,0,0,0,0,0
1562684303281.25,-112.96,0,0,0,0,0
1562684303296.88,-115.44,0,0,0,0,0
1562684303312.5,-110.22,0,0,0,0,0
1562684303328.13,-96.07,0,0,0,0,0
1562684303343.75,-74.04,0,0,0,0,0
1562684303359.38,-47.44,0,0,0,0,0
1562684303375,-20.79,0,0,0,0,0
1562684303390.63,1.72,0,0,0,0,0
1562684303406.25,17.52,0,0,0,0,0
1562684303421.88,26.11,0,0,0,0,0
1562684303437.5,28.59,0,0,0,0,0
1562684303453.13,26.66,0,0,0,0,0
1562684303468.75,21.74,0,0,0,0,0
1562684303484.38,14.59,0,0,0,0,0
1562684303500,5.45,0,0,0,0,0
1562684303515.63,-5.54,0,0,0,0,0
1562684303531.25,-18.09,0,0,0,0,0
1562684303546.88,-31.98,0,0,0,0,0
1562684303562.5,-47.17,0,0,0,0,0
1562684303578.13,-63.74,0,0,0,0,0
1562684303593.75,-81.23,0,0,0,0,0
1562684303609.38,-97.84,0,0,0,0,0
1562684303625,-110,0,0,0,0,0
1562684303640.63,-113.01,0,0,0,0,0
1562684303656.25,-102.65,0,0,0,0,0
1562684303671.88,-77.14,0,0,0,0,0
1562684303687.5,-38.45,0,0,0,0,0
1562684303703.13,7.93,0,0,0,0,0
1562684303718.75,54.55,0,0,0,0,0
1562684303734.38,94.35,0,0,0,0,0
1562684303750,122.57,0,0,0,0,0
1562684303765.63,137.56,0,0,0,0,0
1562684303781.25,140.35,0,0,0,0,0
1562684303796.88,133.46,0,0,0,0,0
1562684303812.5,119.87,0,0,0,0,0
1562684303828.13,102.31,0,0,0,0,0
1562684303843.75,83.11,0,0,0,0,0
1562684303859.38,64.12,0,0,0,0,0
1562684303875,46.54,0,0,0,0,0
1562684303890.63,30.6,0,0,0,0,0
1562684303906.25,15.34,0,0,0,0,0
1562684303921.88,-1.24,0,0,0,0,0
1562684303937.5,-21.37,0,0,0,0,0
1562684303953.13,-46.22,0,0,0,0,0
1562684303968.75,-74.61,0,0,0,0,0
1562684303984.38,-102.55,0,0,0,0,0
1562684304000,-124.1,0,0,0,0,0
1562684304015.63,-133.39,0,0,0,0,0
1562684304031.25,-127.02,0,0,0,0,0
1562684304046.88,-105.7,0,0,0,0,0
1562684304062.5,-74.11,0,0,0,0,0
1562684304078.13,-39.18,0,0,0,0,0
1562684304093.75,-7.42,0,0,0,0,0
1562684304109.38,17.13,0,0,0,0,0
1562684304125,33.71,0,0,0,0,0
1562684304140.63,43.9,0,0,0,0,0
1562684304156.25,49.92,0,0,0,0,0
1562684304171.88,53.17,0,0,0,0,0
1562684304187.5,53.63,0,0,0,0,0
1562684304203.13,50.3,0,0,0,0,0
1562684304218.75,42.19,0,0,0,0,0
1562684304234.38,29.06,0,0,0,0,0
1562684304250,11.58,0,0,0,0,0
1562684304265.63,-9.05,0,0,0,0,0
1562684304281.25,-31.46,0,0,0,0,0
1562684304296.88,-54.23,0,0,0,0,0
1562684304312.5,-75.51,0,0,0,0,0
1562684304328.13,-92.49,0,0,0,0,0
1562684304343.75,-101.48,0,0,0,0,0
1562684304359.38,-98.72,0,0,0,0,0
1562684304375,-81.96,0,0,0,0,0
1562684304390.63,-51.84,0,0,0,0,0
1562684304406.25,-12.4,0,0,0,0,0
1562684304421.88,29.75,0,0,0,0,0
1562684304437.5,67.4,0,0,0,0,0
1562684304453.13,94.87,0,0,0,0,0
1562684304468.75,109.54,0,0,0,0,0
1562684304484.38,111.95,0,0,0,0,0
1562684304500,104.87,0,0,0,0,0
1562684304515.63,91.77,0,0,0,0,0
1562684304531.25,75.67,0,0,0,0,0
1562684304546.88,58.63,0,0,0,0,0
1562684304562.5,41.86,0,0,0,0,0
1562684304578.13,26.19,0,0,0,0,0
1562684304593.75,12.37,0,0,0,0,0
1562684304609.38,1.07,0,0,0,0,0
1562684304625,-7.33,0,0,0,0,0
1562684304640.63,-12.9,0,0,0,0,0
1562684304656.25,-16.19,0,0,0,0,0
1562684304671.88,-17.72,0,0,0,0,0
1562684304687.5,-17.49,0,0,0,0,0
1562684304703.13,-14.58,0,0,0,0,0
1562684304718.75,-7.45,0,0,0,0,0
1562684304734.38,5.33,0,0,0,0,0
1562684304750,23.98,0,0,0,0,0
1562684304765.63,46.89,0,0,0,0,0
1562684304781.25,70.69,0,0,0,0,0
1562684304796.88,91.16,0,0,0,0,0
1562684304812.5,104.55,0,0,0,0,0
1562684304828.13,108.66,0,0,0,0,0
1562684304843.75,103.31,0,0,0,0,0
1562684304859.38,89.98,0,0,0,0,0
1562684304875,71.04,0,0,0,0,0
1562684304890.63,48.94,0,0,0,0,0
1562684304906.25,25.71,0,0,0,0,0
1562684304921.88,2.91,0,0,0,0,0
1562684304937.5,-18.28,0,0,0,0,0
1562684304953.13,-36.81,0,0,0,0,0
1562684304968.75,-51.83,0,0,0,0,0
1562684304984.38,-62.84,0,0,0,0,0
1562684305000,-69.98,0,0,0,0,0
1562684305015.63,-74.28,0,0,0,0,0
1562684305031.25,-77.28,0,0,0,0,0
1562684305046.88,-80.37,0,0,0,0,0
1562684305062.5,-83.81,0,0,0,0,0
1562684305078.13,-86.23,0,0,0,0,0
1562684305093.75,-84.94,0,0,0,0,0
1562684305109.38,-77,0,0,0,0,0
1562684305125,-60.73,0,0,0,0,0
1562684305140.63,-36.74,0,0,0,0,0
1562684305156.25,-8.01,0,0,0,0,0
1562684305171.88,21.13,0,0,0,0,0
1562684305187.5,46.45,0,0,0,0,0
1562684305203.13,65.06,0,0,0,0,0
1562684305218.75,75.85,0,0,0,0,0
1562684305234.38,79.17,0,0,0,0,0
1562684305250,76.13,0,0,0,0,0
1562684305265.63,67.88,0,0,0,0,0
1562684305281.25,55.44,0,0,0,0,0
1562684305296.88,39.58,0,0,0,0,0
1562684305312.5,21.07,0,0,0,0,0
1562684305328.13,0.61,0,0,0,0,0
1562684305343.75,-21.22,0,0,0,0,0
1562684305359.38,-44.22,0,0,0,0,0
1562684305375,-68.66,0,0,0,0,0
1562684305390.63,-94.82,0,0,0,0,0
1562684305406.25,-122.35,0,0,0,0,0
1562684305421.88,-149.34,0,0,0,0,0
1562684305437.5,-171.97,0,0,0,0,0
1562684305453.13,-184.97,0,0,0,0,0
1562684305468.75,-183.17,0,0,0,0,0
1562684305484.38,-163.34,0,0,0,0,0
1562684305500,-125.79,0,0,0,0,0
1562684305515.63,-74.68,0,0,0,0,0
1562684305531.25,-17.08,0,0,0,0,0
1562684305546.88,39.09,0,0,0,0,0
1562684305562.5,87.16,0,0,0,0,0
1562684305578.13,123.04,0,0,0,0,0
1562684305593.75,145.51,0,0,0,0,0
1562684305609.38,155.5,0,0,0,0,0
1562684305625,155.15,0,0,0,0,0
1562684305640.63,146.86,0,0,0,0,0
1562684305656.25,132.83,0,0,0,0,0
1562684305671.88,114.9,0,0,0,0,0
1562684305687.5,94.4,0,0,0,0,0
1562684305703.13,72.13,0,0,0,0,0
1562684305718.75,48.13,0,0,0,0,0
1562684305734.38,21.75,0,0,0,0,0
1562684305750,-8.1,0,0,0,0,0
1562684305765.63,-41.98,0,0,0,0,0
1562684305781.25,-78.78,0,0,0,0,0
1562684305796.88,-114.92,0,0,0,0,0
1562684305812.5,-144.66,0,0,0,0,0
1562684305828.13,-161.51,0,0,0,0,0
1562684305843.75,-160.58,0,0,0,0,0
1562684305859.38,-140.58,0,0,0,0,0
1562684305875,-104.63,0,0,0,0,0
1562684305890.63,-59.38,0,0,0,0,0
1562684305906.25,-12.85,0,0,0,0,0
1562684305921.88,28,0,0,0,0,0
1562684305937.5,58.77,0,0,0,0,0
1562684305953.13,77.91,0,0,0,0,0
1562684305968.75,85.98,0,0,0,0,0
1562684305984.38,84.5,0,0,0,0,0
1562684306000,75.25,0,0,0,0,0
1562684306015.63,60.11,0,0,0,0,0
1562684306031.25,41.27,0,0,0,0,0
1562684306046.88,21.27,0,0,0,0,0
1562684306062.5,2.75,0,0,0,0,0
1562684306078.13,-12.33,0,0,0,0,0
1562684306093.75,-23.26,0,0,0,0,0
1562684306109.38,-30.67,0,0,0,0,0
1562684306125,-35.96,0,0,0,0,0
1562684306140.63,-40.18,0,0,0,0,0
1562684306156.25,-43.18,0,0,0,0,0
1562684306171.88,-43.45,0,0,0,0,0
1562684306187.5,-38.84,0,0,0,0,0
1562684306203.13,-27.98,0,0,0,0,0
1562684306218.75,-11.29,0,0,0,0,0
1562684306234.38,8.77,0,0,0,0,0
1562684306250,28.49,0,0,0,0,0
1562684306265.63,44.34,0,0,0,0,0
1562684306281.25,54.27,0,0,0,0,0
1562684306296.88,58.14,0,0,0,0,0
1562684306312.5,57.28,0,0,0,0,0
1562684306328.13,53.59,0,0,0,0,0
1562684306343.75,48.61,0,0,0,0,0
1562684306359.38,43.18,0,0,0,0,0
1562684306375,37.59,0,0,0,0,0
1562684306390.63,31.99,0,0,0,0,0
1562684306406.25,26.69,0,0,0,0,0
1562684306421.88,22.15,0,0,0,0,0
1562684306437.5,18.63,0,0,0,0,0
1562684306453.13,15.78,0,0,0,0,0
1562684306468.75,12.55,0,0,0,0,0
1562684306484.38,7.77,0,0,0,0,0
1562684306500,0.99,0,0,0,0,0
1562684306515.63,-6.71,0,0,0,0,0
1562684306531.25,-12.73,0,0,0,0,0
1562684306546.88,-13.81,0,0,0,0,0
1562684306562.5,-7.6,0,0,0,0,0
1562684306578.13,6.01,0,0,0,0,0
1562684306593.75,24.49,0,0,0,0,0
1562684306609.38,43.35,0,0,0,0,0
1562684306625,57.81,0,0,0,0,0
1562684306640.63,64.42,0,0,0,0,0
1562684306656.25,61.93,0,0,0,0,0
1562684306671.88,51.29,0,0,0,0,0
1562684306687.5,34.95,0,0,0,0,0
1562684306703.13,15.84,0,0,0,0,0
1562684306718.75,-3.19,0,0,0,0,0
1562684306734.38,-19.75,0,0,0,0,0
1562684306750,-32,0,0,0,0,0
1562684306765.63,-38.75,0,0,0,0,0
1562684306781.25,-39.79,0,0,0,0,0
1562684306796.88,-36.13,0,0,0,0,0
1562684306812.5,-30.23,0,0,0,0,0
1562684306828.13,-25.66,0,0,0,0,0
1562684306843.75,-26.19,0,0,0,0,0
1562684306859.38,-34.2,0,0,0,0,0
1562684306875,-49.14,0,0,0,0,0
1562684306890.63,-66.85,0,0,0,0,0
1562684306906.25,-80.39,0,0,0,0,0
1562684306921.88,-82.36,0,0,0,0,0
1562684306937.5,-67.89,0,0,0,0,0
1562684306953.13,-36.74,0,0,0,0,0
1562684306968.75,6.2,0,0,0,0,0
1562684306984.38,52.73,0,0,0,0,0
1562684307000,94.13,0,0,0,0,0
1562684307015.63,123.86,0,0,0,0,0
1562684307031.25,138.91,0,0,0,0,0
1562684307046.88,139.61,0,0,0,0,0
1562684307062.5,128.28,0,0,0,0,0
1562684307078.13,107.83,0,0,0,0,0
1562684307093.75,80.99,0,0,0,0,0
1562684307109.38,50.2,0,0,0,0,0
1562684307125,17.81,0,0,0,0,0
1562684307140.63,-13.72,0,0,0,0,0
1562684307156.25,-42.29,0,0,0,0,0
1562684307171.88,-66.6,0,0,0,0,0
1562684307187.5,-86.41,0,0,0,0,0
1562684307203.13,-102.36,0,0,0,0,0
1562684307218.75,-115.06,0,0,0,0,0
1562684307234.38,-123.99,0,0,0,0,0
1562684307250,-126.89,0,0,0,0,0
1562684307265.63,-120.15,0,0,0,0,0
1562684307281.25,-100.3,0,0,0,0,0
1562684307296.88,-66.01,0,0,0,0,0
1562684307312.5,-19.52,0,0,0,0,0
1562684307328.13,33.35,0,0,0,0,0
1562684307343.75,84.6,0,0,0,0,0
1562684307359.38,126.5,0,0,0,0,0
1562684307375,153.82,0,0,0,0,0
1562684307390.63,164.82,0,0,0,0,0
1562684307406.25,161.05,0,0,0,0,0
1562684307421.88,145.91,0,0,0,0,0
1562684307437.5,123.22,0,0,0,0,0
1562684307453.13,96.13,0,0,0,0,0
1562684307468.75,66.83,0,0,0,0,0
1562684307484.38,36.71,0,0,0,0,0
1562684307500,6.64,0,0,0,0,0
1562684307515.63,-22.8,0,0,0,0,0
1562684307531.25,-51.33,0,0,0,0,0
1562684307546.88,-78.98,0,0,0,0,0
1562684307562.5,-105.96,0,0,0,0,0
1562684307578.13,-132.28,0,0,0,0,0
1562684307593.75,-156.95,0,0,0,0,0
1562684307609.38,-177.36,0,0,0,0,0
1562684307625,-189.36,0,0,0,0,0
1562684307640.63,-188.22,0,0,0,0,0
1562684307656.25,-170.57,0,0,0,0,0
1562684307671.88,-136.32,0,0,0,0,0
1562684307687.5,-89.64,0,0,0,0,0
1562684307703.13,-38.16,0,0,0,0,0
1562684307718.75,9.33,0,0,0,0,0
1562684307734.38,45.93,0,0,0,0,0
1562684307750,68.49,0,0,0,0,0
1562684307765.63,77.95,0,0,0,0,0
1562684307781.25,77.9,0,0,0,0,0
1562684307796.88,72.38,0,0,0,0,0
1562684307812.5,64.16,0,0,0,0,0
1562684307828.13,54.32,0,0,0,0,0
1562684307843.75,42.79,0,0,0,0,0
1562684307859.38,29.33,0,0,0,0,0
1562684307875,14.07,0,0,0,0,0
1562684307890.63,-2.64,0,0,0,0,0
1562684307906.25,-20.91,0,0,0,0,0
1562684307921.88,-41.61,0,0,0,0,0
1562684307937.5,-66.03,0,0,0,0,0
1562684307953.13,-94.75,0,0,0,0,0
1562684307968.75,-126.19,0,0,0,0,0
1562684307984.38,-156.03,0,0,0,0,0
1562684308000,-177.86,0,0,0,0,0
1562684308015.63,-184.9,0,0,0,0,0
1562684308031.25,-172.32,0,0,0,0,0
1562684308046.88,-139,0,0,0,0,0
1562684308062.5,-88.08,0,0,0,0,0
1562684308078.13,-26.16,0,0,0,0,0
1562684308093.75,38.47,0,0,0,0,0
1562684308109.38,97.72,0,0,0,0,0
1562684308125,145.31,0,0,0,0,0
1562684308140.63,177.61,0,0,0,0,0
1562684308156.25,193.81,0,0,0,0,0
1562684308171.88,195.48,0,0,0,0,0
1562684308187.5,185.79,0,0,0,0,0
1562684308203.13,168.52,0,0,0,0,0
1562684308218.75,147.03,0,0,0,0,0
1562684308234.38,123.61,0,0,0,0,0
1562684308250,99.16,0,0,0,0,0
1562684308265.63,73.34,0,0,0,0,0
1562684308281.25,45.02,0,0,0,0,0
1562684308296.88,12.85,0,0,0,0,0
1562684308312.5,-23.86,0,0,0,0,0
1562684308328.13,-64.16,0,0,0,0,0
1562684308343.75,-104.63,0,0,0,0,0
1562684308359.38,-139.52,0,0,0,0,0
1562684308375,-161.95,0,0,0,0,0
1562684308390.63,-166.14,0,0,0,0,0
1562684308406.25,-149.68,0,0,0,0,0
1562684308421.88,-114.69,0,0,0,0,0
1562684308437.5,-67.4,0,0,0,0,0
1562684308453.13,-16.06,0,0,0,0,0
1562684308468.75,31.52,0,0,0,0,0
1562684308484.38,69.93,0,0,0,0,0
1562684308500,96.66,0,0,0,0,0
1562684308515.63,111.57,0,0,0,0,0
1562684308531.25,115.69,0,0,0,0,0
1562684308546.88,110.53,0,0,0,0,0
1562684308562.5,97.77,0,0,0,0,0
1562684308578.13,79.52,0,0,0,0,0
1562684308593.75,58.32,0,0,0,0,0
1562684308609.38,36.89,0,0,0,0,0
1562684308625,17.42,0,0,0,0,0
1562684308640.63,0.93,0,0,0,0,0
1562684308656.25,-12.94,0,0,0,0,0
1562684308671.88,-25.37,0,0,0,0,0
1562684308687.5,-37.4,0,0,0,0,0
1562684308703.13,-48.82,0,0,0,0,0
1562684308718.75,-57.87,0,0,0,0,0
1562684308734.38,-61.74,0,0,0,0,0
1562684308750,-57.89,0,0,0,0,0
1562684308765.63,-45.38,0,0,0,0,0
1562684308781.25,-25.52,0,0,0,0,0
1562684308796.88,-1.47,0,0,0,0,0
1562684308812.5,22.91,0,0,0,0,0
1562684308828.13,44.47,0,0,0,0,0
1562684308843.75,61.66,0,0,0,0,0
1562684308859.38,74.47,0,0,0,0,0
1562684308875,83.77,0,0,0,0,0
1562684308890.63,90.43,0,0,0,0,0
1562684308906.25,94.8,0,0,0,0,0
1562684308921.88,96.68,0,0,0,0,0
1562684308937.5,95.69,0,0,0,0,0
1562684308953.13,91.62,0,0,0,0,0
1562684308968.75,84.72,0,0,0,0,0
1562684308984.38,75.64,0,0,0,0,0
1562684309000,65.29,0,0,0,0,0
1562684309015.63,54.4,0,0,0,0,0
1562684309031.25,43.18,0,0,0,0,0
1562684309046.88,31.23,0,0,0,0,0
1562684309062.5,17.94,0,0,0,0,0
1562684309078.13,3.27,0,0,0,0,0
1562684309093.75,-11.63,0,0,0,0,0
1562684309109.38,-24.46,0,0,0,0,0
1562684309125,-32.46,0,0,0,0,0
1562684309140.63,-33.76,0,0,0,0,0
1562684309156.25,-28.48,0,0,0,0,0
1562684309171.88,-19.01,0,0,0,0,0
1562684309187.5,-9.12,0,0,0,0,0
1562684309203.13,-2.42,0,0,0,0,0
1562684309218.75,-0.88,0,0,0,0,0
1562684309234.38,-4.17,0,0,0,0,0
1562684309250,-10.09,0,0,0,0,0
1562684309265.63,-15.74,0,0,0,0,0
1562684309281.25,-18.91,0,0,0,0,0
1562684309296.88,-18.79,0,0,0,0,0
1562684309312.5,-16.16,0,0,0,0,0
1562684309328.13,-12.84,0,0,0,0,0
1562684309343.75,-11.07,0,0,0,0,0
1562684309359.38,-12.84,0,0,0,0,0
1562684309375,-19.57,0,0,0,0,0
1562684309390.63,-32.05,0,0,0,0,0
1562684309406.25,-50.13,0,0,0,0,0
1562684309421.88,-72.41,0,0,0,0,0
1562684309437.5,-95.91,0,0,0,0,0
1562684309453.13,-116.12,0,0,0,0,0
1562684309468.75,-127.79,0,0,0,0,0
1562684309484.38,-126.45,0,0,0,0,0
1562684309500,-110.12,0,0,0,0,0
1562684309515.63,-80.48,0,0,0,0,0
1562684309531.25,-42.62,0,0,0,0,0
1562684309546.88,-3.74,0,0,0,0,0
1562684309562.5,29.12,0,0,0,0,0
1562684309578.13,51.07,0,0,0,0,0
1562684309593.75,60.39,0,0,0,0,0
1562684309609.38,58.27,0,0,0,0,0
1562684309625,47.75,0,0,0,0,0
1562684309640.63,32.37,0,0,0,0,0
1562684309656.25,15.19,0,0,0,0,0
1562684309671.88,-1.55,0,0,0,0,0
1562684309687.5,-16.5,0,0,0,0,0
1562684309703.13,-28.97,0,0,0,0,0
1562684309718.75,-38.82,0,0,0,0,0
1562684309734.38,-46.39,0,0,0,0,0
1562684309750,-52.47,0,0,0,0,0
1562684309765.63,-57.9,0,0,0,0,0
1562684309781.25,-63.05,0,0,0,0,0
1562684309796.88,-67.17,0,0,0,0,0
1562684309812.5,-68.07,0,0,0,0,0
1562684309828.13,-62.56,0,0,0,0,0
1562684309843.75,-47.6,0,0,0,0,0
1562684309859.38,-21.8,0,0,0,0,0
1562684309875,13.52,0,0,0,0,0
1562684309890.63,54.15,0,0,0,0,0
1562684309906.25,93.93,0,0,0,0,0
1562684309921.88,126.55,0,0,0,0,0
1562684309937.5,147.19,0,0,0,0,0
1562684309953.13,153.69,0,0,0,0,0
1562684309968.75,146.58,0,0,0,0,0
1562684309984.38,128.35,0,0,0,0,0
1562684310000,102.43,0,0,0,0,0
1562684310015.63,72.18,0,0,0,0,0
1562684310031.25,40.38,0,0,0,0,0
1562684310046.88,9.07,0,0,0,0,0
1562684310062.5,-20.27,0,0,0,0,0
1562684310078.13,-46.62,0,0,0,0,0
1562684310093.75,-69.4,0,0,0,0,0
1562684310109.38,-88.62,0,0,0,0,0
1562684310125,-105.06,0,0,0,0,0
1562684310140.63,-119.86,0,0,0,0,0
1562684310156.25,-133.64,0,0,0,0,0
1562684310171.88,-145.55,0,0,0,0,0
1562684310187.5,-152.75,0,0,0,0,0
1562684310203.13,-151.14,0,0,0,0,0
1562684310218.75,-137.04,0,0,0,0,0
1562684310234.38,-109.22,0,0,0,0,0
1562684310250,-70,0,0,0,0,0
1562684310265.63,-24.95,0,0,0,0,0
1562684310281.25,19.01,0,0,0,0,0
1562684310296.88,55.91,0,0,0,0,0
1562684310312.5,82.45,0,0,0,0,0
1562684310328.13,98.32,0,0,0,0,0
1562684310343.75,105.11,0,0,0,0,0
1562684310359.38,104.89,0,0,0,0,0
1562684310375,98.99,0,0,0,0,0
1562684310390.63,87.88,0,0,0,0,0
1562684310406.25,71.61,0,0,0,0,0
1562684310421.88,50.51,0,0,0,0,0
1562684310437.5,25.51,0,0,0,0,0
1562684310453.13,-2.18,0,0,0,0,0
1562684310468.75,-31.48,0,0,0,0,0
1562684310484.38,-61.7,0,0,0,0,0
1562684310500,-92.19,0,0,0,0,0
1562684310515.63,-121.53,0,0,0,0,0
1562684310531.25,-146.96,0,0,0,0,0
1562684310546.88,-164.4,0,0,0,0,0
1562684310562.5,-169.32,0,0,0,0,0
1562684310578.13,-158.16,0,0,0,0,0
1562684310593.75,-129.68,0,0,0,0,0
1562684310609.38,-85.69,0,0,0,0,0
1562684310625,-30.88,0,0,0,0,0
1562684310640.63,28.11,0,0,0,0,0
1562684310656.25,84.09,0,0,0,0,0
1562684310671.88,130.76,0,0,0,0,0
1562684310687.5,163.85,0,0,0,0,0
1562684310703.13,181.78,0,0,0,0,0
1562684310718.75,185.78,0,0,0,0,0
1562684310734.38,179.07,0,0,0,0,0
1562684310750,165.66,0,0,0,0,0
1562684310765.63,149.09,0,0,0,0,0
1562684310781.25,131.38,0,0,0,0,0
1562684310796.88,112.95,0,0,0,0,0
1562684310812.5,93.15,0,0,0,0,0
1562684310828.13,71.16,0,0,0,0,0
1562684310843.75,46.37,0,0,0,0,0
1562684310859.38,18.49,0,0,0,0,0
1562684310875,-12.56,0,0,0,0,0
1562684310890.63,-46.08,0,0,0,0,0
1562684310906.25,-79.93,0,0,0,0,0
1562684310921.88,-109.98,0,0,0,0,0
1562684310937.5,-130.58,0,0,0,0,0
1562684310953.13,-136.24,0,0,0,0,0
1562684310968.75,-123.92,0,0,0,0,0
1562684310984.38,-94.78,0,0,0,0,0
1562684311000,-54.3,0,0,0,0,0
1562684311015.63,-10.66,0,0,0,0,0
1562684311031.25,28.08,0,0,0,0,0
1562684311046.88,56.33,0,0,0,0,0
1562684311062.5,72.1,0,0,0,0,0
1562684311078.13,76.59,0,0,0,0,0
1562684311093.75,72.78,0,0,0,0,0
1562684311109.38,63.91,0,0,0,0,0
1562684311125,52.74,0,0,0,0,0
1562684311140.63,41.47,0,0,0,0,0
1562684311156.25,31.8,0,0,0,0,0
1562684311171.88,25.04,0,0,0,0,0
1562684311187.5,21.77,0,0,0,0,0
1562684311203.13,21.32,0,0,0,0,0
1562684311218.75,21.68,0,0,0,0,0
1562684311234.38,19.93,0,0,0,0,0
1562684311250,13.44,0,0,0,0,0
1562684311265.63,1.34,0,0,0,0,0
1562684311281.25,-14.55,0,0,0,0,0
1562684311296.88,-30.03,0,0,0,0,0
1562684311312.5,-39.92,0,0,0,0,0
1562684311328.13,-40.25,0,0,0,0,0
1562684311343.75,-30.01,0,0,0,0,0
1562684311359.38,-11.58,0,0,0,0,0
1562684311375,10.21,0,0,0,0,0
1562684311390.63,30.09,0,0,0,0,0
1562684311406.25,44.2,0,0,0,0,0
1562684311421.88,51.13,0,0,0,0,0
1562684311437.5,51.65,0,0,0,0,0
1562684311453.13,47.78,0,0,0,0,0
1562684311468.75,41.63,0,0,0,0,0
1562684311484.38,34.72,0,0,0,0,0
1562684311500,27.92,0,0,0,0,0
1562684311515.63,21.65,0,0,0,0,0
1562684311531.25,16.12,0,0,0,0,0
1562684311546.88,11.42,0,0,0,0,0
1562684311562.5,7.28,0,0,0,0,0
1562684311578.13,2.79,0,0,0,0,0
1562684311593.75,-3.57,0,0,0,0,0
1562684311609.38,-13.45,0,0,0,0,0
1562684311625,-27.71,0,0,0,0,0
1562684311640.63,-45.41,0,0,0,0,0
1562684311656.25,-63.52,0,0,0,0,0
1562684311671.88,-77.52,0,0,0,0,0
1562684311687.5,-83.07,0,0,0,0,0
1562684311703.13,-77.84,0,0,0,0,0
1562684311718.75,-62.7,0,0,0,0,0
1562684311734.38,-41.5,0,0,0,0,0
1562684311750,-19.64,0,0,0,0,0
1562684311765.63,-1.95,0,0,0,0,0
1562684311781.25,8.85,0,0,0,0,0
1562684311796.88,12.68,0,0,0,0,0
1562684311812.5,11.31,0,0,0,0,0
1562684311828.13,7.04,0,0,0,0,0
1562684311843.75,1.61,0,0,0,0,0
1562684311859.38,-4.36,0,0,0,0,0
1562684311875,-11.03,0,0,0,0,0
1562684311890.63,-18.94,0,0,0,0,0
1562684311906.25,-28.57,0,0,0,0,0
1562684311921.88,-40.38,0,0,0,0,0
1562684311937.5,-54.8,0,0,0,0,0
1562684311953.13,-71.96,0,0,0,0,0
1562684311968.75,-91.1,0,0,0,0,0
1562684311984.38,-109.86,0,0,0,0,0
1562684312000,-124.08,0,0,0,0,0
1562684312015.63,-128.43,0,0,0,0,0
1562684312031.25,-118.04,0,0,0,0,0
1562684312046.88,-90.51,0,0,0,0,0
1562684312062.5,-47.37,0,0,0,0,0
1562684312078.13,5.82,0,0,0,0,0
1562684312093.75,60.72,0,0,0,0,0
1562684312109.38,108.59,0,0,0,0,0
1562684312125,142.55,0,0,0,0,0
1562684312140.63,159.14,0,0,0,0,0
1562684312156.25,158.48,0,0,0,0,0
1562684312171.88,143.39,0,0,0,0,0
1562684312187.5,117.96,0,0,0,0,0
1562684312203.13,86.44,0,0,0,0,0
1562684312218.75,52.55,0,0,0,0,0
1562684312234.38,19.39,0,0,0,0,0
1562684312250,-10.42,0,0,0,0,0
1562684312265.63,-34.69,0,0,0,0,0
1562684312281.25,-52,0,0,0,0,0
1562684312296.88,-62.17,0,0,0,0,0
1562684312312.5,-66.56,0,0,0,0,0
1562684312328.13,-67.61,0,0,0,0,0
1562684312343.75,-67.56,0,0,0,0,0
1562684312359.38,-67.04,0,0,0,0,0
1562684312375,-64.27,0,0,0,0,0
1562684312390.63,-55.62,0,0,0,0,0
1562684312406.25,-37.35,0,0,0,0,0
1562684312421.88,-7.96,0,0,0,0,0
1562684312437.5,30.25,0,0,0,0,0
1562684312453.13,71.38,0,0,0,0,0
1562684312468.75,107.6,0,0,0,0,0
1562684312484.38,131.83,0,0,0,0,0
1562684312500,139.94,0,0,0,0,0
1562684312515.63,131.64,0,0,0,0,0
1562684312531.25,109.9,0,0,0,0,0
1562684312546.88,79.39,0,0,0,0,0
1562684312562.5,44.95,0,0,0,0,0
1562684312578.13,10.62,0,0,0,0,0
1562684312593.75,-20.49,0,0,0,0,0
1562684312609.38,-45.89,0,0,0,0,0
1562684312625,-63.55,0,0,0,0,0
1562684312640.63,-72.28,0,0,0,0,0
1562684312656.25,-72.47,0,0,0,0,0
1562684312671.88,-66.67,0,0,0,0,0
1562684312687.5,-59.16,0,0,0,0,0
1562684312703.13,-54.36,0,0,0,0,0
1562684312718.75,-54.63,0,0,0,0,0
1562684312734.38,-58.63,0,0,0,0,0
1562684312750,-61.54,0,0,0,0,0
1562684312765.63,-57.12,0,0,0,0,0
1562684312781.25,-40.81,0,0,0,0,0
1562684312796.88,-12.21,0,0,0,0,0
1562684312812.5,24.52,0,0,0,0,0
1562684312828.13,62.52,0,0,0,0,0
1562684312843.75,95.07,0,0,0,0,0
1562684312859.38,118.04,0,0,0,0,0
1562684312875,130.43,0,0,0,0,0
1562684312890.63,133.22,0,0,0,0,0
1562684312906.25,127.62,0,0,0,0,0
1562684312921.88,113.98,0,0,0,0,0
1562684312937.5,92.05,0,0,0,0,0
1562684312953.13,62.11,0,0,0,0,0
1562684312968.75,25.98,0,0,0,0,0
1562684312984.38,-12.91,0,0,0,0,0
1562684313000,-50.71,0,0,0,0,0
1562684313015.63,-84.65,0,0,0,0,0
1562684313031.25,-113.82,0,0,0,0,0
1562684313046.88,-138.8,0,0,0,0,0
1562684313062.5,-160.22,0,0,0,0,0
1562684313078.13,-177.17,0,0,0,0,0
1562684313093.75,-186.73,0,0,0,0,0
1562684313109.38,-184.71,0,0,0,0,0
1562684313125,-167.29,0,0,0,0,0
1562684313140.63,-132.73,0,0,0,0,0
1562684313156.25,-82.18,0,0,0,0,0
1562684313171.88,-19.66,0,0,0,0,0
1562684313187.5,48.63,0,0,0,0,0
1562684313203.13,115.35,0,0,0,0,0
1562684313218.75,173.08,0,0,0,0,0
1562684313234.38,215.37,0,0,0,0,0
1562684313250,238.01,0,0,0,0,0
1562684313265.63,239.87,0,0,0,0,0
1562684313281.25,223.15,0,0,0,0,0
1562684313296.88,192.56,0,0,0,0,0
1562684313312.5,153.62,0,0,0,0,0
1562684313328.13,110.95,0,0,0,0,0
1562684313343.75,67.22,0,0,0,0,0
1562684313359.38,23.21,0,0,0,0,0
1562684313375,-21.26,0,0,0,0,0
1562684313390.63,-66.04,0,0,0,0,0
1562684313406.25,-109.67,0,0,0,0,0
1562684313421.88,-149.1,0,0,0,0,0
1562684313437.5,-179.93,0,0,0,0,0
1562684313453.13,-197.33,0,0,0,0,0
1562684313468.75,-197.14,0,0,0,0,0
1562684313484.38,-177.2,0,0,0,0,0
1562684313500,-138.43,0,0,0,0,0
1562684313515.63,-85.29,0,0,0,0,0
1562684313531.25,-25.09,0,0,0,0,0
1562684313546.88,33.48,0,0,0,0,0
1562684313562.5,82.46,0,0,0,0,0
1562684313578.13,116.34,0,0,0,0,0
1562684313593.75,132.94,0,0,0,0,0
1562684313609.38,133.3,0,0,0,0,0
1562684313625,120.78,0,0,0,0,0
1562684313640.63,99.81,0,0,0,0,0
1562684313656.25,74.87,0,0,0,0,0
1562684313671.88,49.79,0,0,0,0,0
1562684313687.5,27.18,0,0,0,0,0
1562684313703.13,8.24,0,0,0,0,0
1562684313718.75,-7.31,0,0,0,0,0
1562684313734.38,-21.2,0,0,0,0,0
1562684313750,-36.14,0,0,0,0,0
1562684313765.63,-54.99,0,0,0,0,0
1562684313781.25,-79.26,0,0,0,0,0
1562684313796.88,-107.82,0,0,0,0,0
1562684313812.5,-136.3,0,0,0,0,0
1562684313828.13,-157.78,0,0,0,0,0
1562684313843.75,-164.81,0,0,0,0,0
1562684313859.38,-152.07,0,0,0,0,0
1562684313875,-118.76,0,0,0,0,0
1562684313890.63,-69.26,0,0,0,0,0
1562684313906.25,-11.92,0,0,0,0,0
1562684313921.88,43.7,0,0,0,0,0
1562684313937.5,90.01,0,0,0,0,0
1562684313953.13,123.45,0,0,0,0,0
1562684313968.75,144.61,0,0,0,0,0
1562684313984.38,156.81,0,0,0,0,0
1562684314000,163.91,0,0,0,0,0
1562684314015.63,168.44,0,0,0,0,0
1562684314031.25,170.98,0,0,0,0,0
1562684314046.88,170.48,0,0,0,0,0
1562684314062.5,165.21,0,0,0,0,0
1562684314078.13,153.57,0,0,0,0,0
1562684314093.75,134.39,0,0,0,0,0
1562684314109.38,106.82,0,0,0,0,0
1562684314125,70.28,0,0,0,0,0
1562684314140.63,24.83,0,0,0,0,0
1562684314156.25,-27.67,0,0,0,0,0
1562684314171.88,-82.58,0,0,0,0,0
1562684314187.5,-132.37,0,0,0,0,0
1562684314203.13,-168.1,0,0,0,0,0
1562684314218.75,-182.26,0,0,0,0,0
1562684314234.38,-171.66,0,0,0,0,0
1562684314250,-139.11,0,0,0,0,0
1562684314265.63,-92.64,0,0,0,0,0
1562684314281.25,-42.92,0,0,0,0,0
1562684314296.88,0.45,0,0,0,0,0
1562684314312.5,31.53,0,0,0,0,0
1562684314328.13,48.91,0,0,0,0,0
1562684314343.75,54.61,0,0,0,0,0
1562684314359.38,52.07,0,0,0,0,0
1562684314375,44.41,0,0,0,0,0
1562684314390.63,33.84,0,0,0,0,0
1562684314406.25,21.91,0,0,0,0,0
1562684314421.88,10.19,0,0,0,0,0
1562684314437.5,0.41,0,0,0,0,0
1562684314453.13,-6.16,0,0,0,0,0
1562684314468.75,-9.53,0,0,0,0,0
1562684314484.38,-11.35,0,0,0,0,0
1562684314500,-14.38,0,0,0,0,0
1562684314515.63,-20.93,0,0,0,0,0
1562684314531.25,-31.19,0,0,0,0,0
1562684314546.88,-42.49,0,0,0,0,0
1562684314562.5,-50.12,0,0,0,0,0
1562684314578.13,-49.43,0,0,0,0,0
1562684314593.75,-38.02,0,0,0,0,0
1562684314609.38,-16.96,0,0,0,0,0
1562684314625,9.6,0,0,0,0,0
1562684314640.63,36.21,0,0,0,0,0
1562684314656.25,58.23,0,0,0,0,0
1562684314671.88,73.18,0,0,0,0,0
1562684314687.5,80.77,0,0,0,0,0
1562684314703.13,82.16,0,0,0,0,0
1562684314718.75,78.96,0,0,0,0,0
1562684314734.38,72.57,0,0,0,0,0
1562684314750,64.24,0,0,0,0,0
1562684314765.63,55.14,0,0,0,0,0
1562684314781.25,46.45,0,0,0,0,0
1562684314796.88,39.02,0,0,0,0,0
1562684314812.5,32.98,0,0,0,0,0
1562684314828.13,27.35,0,0,0,0,0
1562684314843.75,20.16,0,0,0,0,0
1562684314859.38,9.11,0,0,0,0,0
1562684314875,-7.27,0,0,0,0,0
1562684314890.63,-28.38,0,0,0,0,0
1562684314906.25,-51.09,0,0,0,0,0
1562684314921.88,-70.31,0,0,0,0,0
1562684314937.5,-80.7,0,0,0,0,0
1562684314953.13,-78.88,0,0,0,0,0
1562684314968.75,-64.96,0,0,0,0,0
1562684314984.38,-42.8,0,0,0,0,0
1562684315000,-18.63,0,0,0,0,0
1562684315015.63,1.36,0,0,0,0,0
1562684315031.25,13.18,0,0,0,0,0
1562684315046.88,16.16,0,0,0,0,0
1562684315062.5,12.61,0,0,0,0,0
1562684315078.13,6.33,0,0,0,0,0
1562684315093.75,0.84,0,0,0,0,0
1562684315109.38,-1.82,0,0,0,0,0
1562684315125,-1.34,0,0,0,0,0
1562684315140.63,1.46,0,0,0,0,0
1562684315156.25,5.39,0,0,0,0,0
1562684315171.88,9.46,0,0,0,0,0
1562684315187.5,12.68,0,0,0,0,0
1562684315203.13,13.63,0,0,0,0,0
1562684315218.75,10.32,0,0,0,0,0
1562684315234.38,0.84,0,0,0,0,0
1562684315250,-15.1,0,0,0,0,0
1562684315265.63,-34.87,0,0,0,0,0
1562684315281.25,-52.75,0,0,0,0,0
1562684315296.88,-61.44,0,0,0,0,0
1562684315312.5,-54.95,0,0,0,0,0
1562684315328.13,-31.29,0,0,0,0,0
1562684315343.75,6.28,0,0,0,0,0
1562684315359.38,50.34,0,0,0,0,0
1562684315375,92.01,0,0,0,0,0
1562684315390.63,123.93,0,0,0,0,0
1562684315406.25,142.28,0,0,0,0,0
1562684315421.88,146.8,0,0,0,0,0
1562684315437.5,139.71,0,0,0,0,0
1562684315453.13,123.95,0,0,0,0,0
1562684315468.75,102.12,0,0,0,0,0
1562684315484.38,76.06,0,0,0,0,0
1562684315500,47.16,0,0,0,0,0
1562684315515.63,16.65,0,0,0,0,0
1562684315531.25,-14.32,0,0,0,0,0
1562684315546.88,-44.87,0,0,0,0,0
1562684315562.5,-74.37,0,0,0,0,0
1562684315578.13,-102.02,0,0,0,0,0
1562684315593.75,-126.09,0,0,0,0,0
1562684315609.38,-143.32,0,0,0,0,0
1562684315625,-149.16,0,0,0,0,0
1562684315640.63,-138.99,0,0,0,0,0
1562684315656.25,-110.23,0,0,0,0,0
1562684315671.88,-64.12,0,0,0,0,0
1562684315687.5,-6.33,0,0,0,0,0
1562684315703.13,54.25,0,0,0,0,0
1562684315718.75,108.01,0,0,0,0,0
1562684315734.38,147.39,0,0,0,0,0
1562684315750,168.78,0,0,0,0,0
1562684315765.63,172.79,0,0,0,0,0
1562684315781.25,163.03,0,0,0,0,0
1562684315796.88,144.25,0,0,0,0,0
1562684315812.5,120.65,0,0,0,0,0
1562684315828.13,95.05,0,0,0,0,0
1562684315843.75,68.85,0,0,0,0,0
1562684315859.38,42.45,0,0,0,0,0
1562684315875,15.89,0,0,0,0,0
1562684315890.63,-10.89,0,0,0,0,0
1562684315906.25,-37.94,0,0,0,0,0
1562684315921.88,-65.51,0,0,0,0,0
1562684315937.5,-93.92,0,0,0,0,0
1562684315953.13,-122.93,0,0,0,0,0
1562684315968.75,-150.98,0,0,0,0,0
1562684315984.38,-174.64,0,0,0,0,0
1562684316000,-189.04,0,0,0,0,0
1562684316015.63,-189.31,0,0,0,0,0
1562684316031.25,-172.81,0,0,0,0,0
1562684316046.88,-140.72,0,0,0,0,0
1562684316062.5,-98.39,0,0,0,0,0
1562684316078.13,-53.75,0,0,0,0,0
1562684316093.75,-14.62,0,0,0,0,0
1562684316109.38,13.89,0,0,0,0,0
1562684316125,30.65,0,0,0,0,0
1562684316140.63,37.99,0,0,0,0,0
1562684316156.25,39.79,0,0,0,0,0
1562684316171.88,39.35,0,0,0,0,0
1562684316187.5,38.18,0,0,0,0,0
1562684316203.13,35.97,0,0,0,0,0
1562684316218.75,31.63,0,0,0,0,0
1562684316234.38,24.45,0,0,0,0,0
1562684316250,14.57,0,0,0,0,0
1562684316265.63,2.74,0,0,0,0,0
1562684316281.25,-10.54,0,0,0,0,0
1562684316296.88,-25.39,0,0,0,0,0
1562684316312.5,-42.3,0,0,0,0,0
1562684316328.13,-61,0,0,0,0,0
1562684316343.75,-79.46,0,0,0,0,0
1562684316359.38,-93.67,0,0,0,0,0
1562684316375,-98.83,0,0,0,0,0
1562684316390.63,-91.34,0,0,0,0,0
1562684316406.25,-70.7,0,0,0,0,0
1562684316421.88,-40.11,0,0,0,0,0
1562684316437.5,-5.45,0,0,0,0,0
1562684316453.13,26.98,0,0,0,0,0
1562684316468.75,52.7,0,0,0,0,0
1562684316484.38,70.23,0,0,0,0,0
1562684316500,80.64,0,0,0,0,0
1562684316515.63,86.08,0,0,0,0,0
1562684316531.25,88.07,0,0,0,0,0
1562684316546.88,86.76,0,0,0,0,0
1562684316562.5,81.38,0,0,0,0,0
1562684316578.13,71.46,0,0,0,0,0
1562684316593.75,57.91,0,0,0,0,0
1562684316609.38,43.18,0,0,0,0,0
1562684316625,30.07,0,0,0,0,0
1562684316640.63,20.11,0,0,0,0,0
1562684316656.25,12.44,0,0,0,0,0
1562684316671.88,4.17,0,0,0,0,0
1562684316687.5,-7.74,0,0,0,0,0
1562684316703.13,-23.99,0,0,0,0,0
1562684316718.75,-41.52,0,0,0,0,0
1562684316734.38,-54.24,0,0,0,0,0
1562684316750,-55.89,0,0,0,0,0
1562684316765.63,-43.26,0,0,0,0,0
1562684316781.25,-17.89,0,0,0,0,0
1562684316796.88,14.88,0,0,0,0,0
1562684316812.5,48.86,0,0,0,0,0
1562684316828.13,79.8,0,0,0,0,0
1562684316843.75,106.35,0,0,0,0,0
1562684316859.38,128.62,0,0,0,0,0
1562684316875,145.79,0,0,0,0,0
1562684316890.63,154.72,0,0,0,0,0
1562684316906.25,150.74,0,0,0,0,0
1562684316921.88,130.35,0,0,0,0,0
1562684316937.5,93.73,0,0,0,0,0
1562684316953.13,45.46,0,0,0,0,0
1562684316968.75,-7.26,0,0,0,0,0
1562684316984.38,-57.77,0,0,0,0,0
1562684317000,-102.54,0,0,0,0,0
1562684317015.63,-141.55,0,0,0,0,0
1562684317031.25,-176.52,0,0,0,0,0
1562684317046.88,-208.06,0,0,0,0,0
1562684317062.5,-233.81,0,0,0,0,0
1562684317078.13,-248.71,0,0,0,0,0
1562684317093.75,-247.15,0,0,0,0,0
1562684317109.38,-225.81,0,0,0,0,0
1562684317125,-185.74,0,0,0,0,0
1562684317140.63,-132.56,0,0,0,0,0
1562684317156.25,-74.87,0,0,0,0,0
1562684317171.88,-21.48,0,0,0,0,0
1562684317187.5,21.05,0,0,0,0,0
1562684317203.13,49.84,0,0,0,0,0
1562684317218.75,65.48,0,0,0,0,0
1562684317234.38,70.68,0,0,0,0,0
1562684317250,68.66,0,0,0,0,0
1562684317265.63,62.02,0,0,0,0,0
1562684317281.25,52.5,0,0,0,0,0
1562684317296.88,41.39,0,0,0,0,0
1562684317312.5,30.03,0,0,0,0,0
1562684317328.13,20,0,0,0,0,0
1562684317343.75,12.72,0,0,0,0,0
1562684317359.38,8.8,0,0,0,0,0
1562684317375,7.7,0,0,0,0,0
1562684317390.63,7.95,0,0,0,0,0
1562684317406.25,8.01,0,0,0,0,0
1562684317421.88,7.46,0,0,0,0,0
1562684317437.5,7.52,0,0,0,0,0
1562684317453.13,10.8,0,0,0,0,0
1562684317468.75,19.95,0,0,0,0,0
1562684317484.38,36.17,0,0,0,0,0
1562684317500,58.26,0,0,0,0,0
1562684317515.63,82.74,0,0,0,0,0
1562684317531.25,105.04,0,0,0,0,0
1562684317546.88,121.13,0,0,0,0,0
1562684317562.5,128.73,0,0,0,0,0
1562684317578.13,127.59,0,0,0,0,0
1562684317593.75,119.02,0,0,0,0,0
1562684317609.38,104.93,0,0,0,0,0
1562684317625,87.1,0,0,0,0,0
1562684317640.63,66.8,0,0,0,0,0
1562684317656.25,44.95,0,0,0,0,0
1562684317671.88,22.23,0,0,0,0,0
1562684317687.5,-0.85,0,0,0,0,0
1562684317703.13,-23.99,0,0,0,0,0
1562684317718.75,-47.34,0,0,0,0,0
1562684317734.38,-71.37,0,0,0,0,0
1562684317750,-96.53,0,0,0,0,0
1562684317765.63,-122.49,0,0,0,0,0
1562684317781.25,-147.49,0,0,0,0,0
1562684317796.88,-168.13,0,0,0,0,0
1562684317812.5,-180,0,0,0,0,0
1562684317828.13,-179.11,0,0,0,0,0
1562684317843.75,-163.62,0,0,0,0,0
1562684317859.38,-134.95,0,0,0,0,0
1562684317875,-97.82,0,0,0,0,0
1562684317890.63,-59,0,0,0,0,0
1562684317906.25,-25.31,0,0,0,0,0
1562684317921.88,-1.68,0,0,0,0,0
1562684317937.5,9.83,0,0,0,0,0
1562684317953.13,9.94,0,0,0,0,0
1562684317968.75,1.16,0,0,0,0,0
1562684317984.38,-13.46,0,0,0,0,0
1562684318000,-31.3,0,0,0,0,0
1562684318015.63,-50.4,0,0,0,0,0
1562684318031.25,-69.41,0,0,0,0,0
1562684318046.88,-87.32,0,0,0,0,0
1562684318062.5,-103.43,0,0,0,0,0
1562684318078.13,-117.58,0,0,0,0,0
1562684318093.75,-130.51,0,0,0,0,0
1562684318109.38,-143.94,0,0,0,0,0
1562684318125,-160.08,0,0,0,0,0
1562684318140.63,-180.56,0,0,0,0,0
1562684318156.25,-205.07,0,0,0,0,0
1562684318171.88,-230.96,0,0,0,0,0
1562684318187.5,-253.73,0,0,0,0,0
1562684318203.13,-268.64,0,0,0,0,0
1562684318218.75,-272.62,0,0,0,0,0
1562684318234.38,-265.43,0,0,0,0,0
1562684318250,-249.49,0,0,0,0,0
1562684318265.63,-228.4,0,0,0,0,0
1562684318281.25,-205.19,0,0,0,0,0
1562684318296.88,-181.07,0,0,0,0,0
1562684318312.5,-155.45,0,0,0,0,0
1562684318328.13,-127.01,0,0,0,0,0
1562684318343.75,-94.91,0,0,0,0,0
1562684318359.38,-59.52,0,0,0,0,0
1562684318375,-22.32,0,0,0,0,0
1562684318390.63,14.9,0,0,0,0,0
1562684318406.25,50.66,0,0,0,0,0
1562684318421.88,84.09,0,0,0,0,0
1562684318437.5,114.56,0,0,0,0,0
1562684318453.13,141.09,0,0,0,0,0
1562684318468.75,161.91,0,0,0,0,0
1562684318484.38,174.67,0,0,0,0,0
1562684318500,177.36,0,0,0,0,0
1562684318515.63,169.59,0,0,0,0,0
1562684318531.25,153.59,0,0,0,0,0
1562684318546.88,134.1,0,0,0,0,0
1562684318562.5,117.11,0,0,0,0,0
1562684318578.13,107.75,0,0,0,0,0
1562684318593.75,108.32,0,0,0,0,0
1562684318609.38,117.46,0,0,0,0,0
1562684318625,130.96,0,0,0,0,0
1562684318640.63,143.64,0,0,0,0,0
1562684318656.25,151.54,0,0,0,0,0
1562684318671.88,153.2,0,0,0,0,0
1562684318687.5,149.59,0,0,0,0,0
1562684318703.13,142.86,0,0,0,0,0
1562684318718.75,134.95,0,0,0,0,0
1562684318734.38,126.63,0,0,0,0,0
1562684318750,117.46,0,0,0,0,0
1562684318765.63,106.43,0,0,0,0,0
1562684318781.25,92.74,0,0,0,0,0
1562684318796.88,76.15,0,0,0,0,0
1562684318812.5,56.83,0,0,0,0,0
1562684318828.13,35.07,0,0,0,0,0
1562684318843.75,11.28,0,0,0,0,0
1562684318859.38,-13.45,0,0,0,0,0
1562684318875,-36.67,0,0,0,0,0
1562684318890.63,-54.36,0,0,0,0,0
1562684318906.25,-61.7,0,0,0,0,0
1562684318921.88,-54.78,0,0,0,0,0
1562684318937.5,-32.52,0,0,0,0,0
1562684318953.13,2.2,0,0,0,0,0
1562684318968.75,43,0,0,0,0,0
1562684318984.38,81.88,0,0,0,0,0
1562684319000,111.74,0,0,0,0,0
1562684319015.63,128.35,0,0,0,0,0
1562684319031.25,131.01,0,0,0,0,0
1562684319046.88,121.78,0,0,0,0,0
1562684319062.5,104.1,0,0,0,0,0
1562684319078.13,81.35,0,0,0,0,0
1562684319093.75,56.23,0,0,0,0,0
1562684319109.38,30.78,0,0,0,0,0
1562684319125,6.68,0,0,0,0,0
1562684319140.63,-14.5,0,0,0,0,0
1562684319156.25,-31.41,0,0,0,0,0
1562684319171.88,-43.35,0,0,0,0,0
1562684319187.5,-50.49,0,0,0,0,0
1562684319203.13,-53.9,0,0,0,0,0
1562684319218.75,-54.86,0,0,0,0,0
1562684319234.38,-54,0,0,0,0,0
1562684319250,-50.52,0,0,0,0,0
1562684319265.63,-42.29,0,0,0,0,0
1562684319281.25,-26.73,0,0,0,0,0
1562684319296.88,-2.25,0,0,0,0,0
1562684319312.5,30.45,0,0,0,0,0
1562684319328.13,68.08,0,0,0,0,0
1562684319343.75,105.49,0,0,0,0,0
1562684319359.38,137.21,0,0,0,0,0
1562684319375,159.11,0,0,0,0,0
1562684319390.63,169.26,0,0,0,0,0
1562684319406.25,167.94,0,0,0,0,0
1562684319421.88,157,0,0,0,0,0
1562684319437.5,138.86,0,0,0,0,0
1562684319453.13,115.86,0,0,0,0,0
1562684319468.75,89.91,0,0,0,0,0
1562684319484.38,62.6,0,0,0,0,0
1562684319500,35.25,0,0,0,0,0
1562684319515.63,9.1,0,0,0,0,0
1562684319531.25,-14.83,0,0,0,0,0
1562684319546.88,-35.92,0,0,0,0,0
1562684319562.5,-54.22,0,0,0,0,0
1562684319578.13,-70.41,0,0,0,0,0
1562684319593.75,-85.25,0,0,0,0,0
1562684319609.38,-98.74,0,0,0,0,0
1562684319625,-109.4,0,0,0,0,0
1562684319640.63,-114.32,0,0,0,0,0
1562684319656.25,-110.11,0,0,0,0,0
1562684319671.88,-94.52,0,0,0,0,0
1562684319687.5,-67.8,0,0,0,0,0
1562684319703.13,-33.16,0,0,0,0,0
1562684319718.75,4.11,0,0,0,0,0
1562684319734.38,38.38,0,0,0,0,0
1562684319750,65.47,0,0,0,0,0
1562684319765.63,83.55,0,0,0,0,0
1562684319781.25,92.97,0,0,0,0,0
1562684319796.88,95.28,0,0,0,0,0
1562684319812.5,92.09,0,0,0,0,0
1562684319828.13,84.45,0,0,0,0,0
1562684319843.75,72.83,0,0,0,0,0
1562684319859.38,57.44,0,0,0,0,0
1562684319875,38.68,0,0,0,0,0
1562684319890.63,17.14,0,0,0,0,0
1562684319906.25,-6.58,0,0,0,0,0
1562684319921.88,-32.14,0,0,0,0,0
1562684319937.5,-59.48,0,0,0,0,0
1562684319953.13,-88.32,0,0,0,0,0
1562684319968.75,-117.19,0,0,0,0,0
1562684319984.38,-142.86,0,0,0,0,0
1562684320000,-160.37,0,0,0,0,0
1562684320015.63,-164.24,0,0,0,0,0
1562684320031.25,-150.4,0,0,0,0,0
1562684320046.88,-117.96,0,0,0,0,0
1562684320062.5,-70.16,0,0,0,0,0
1562684320078.13,-13.69,0,0,0,0,0
1562684320093.75,43.17,0,0,0,0,0
1562684320109.38,92.78,0,0,0,0,0
1562684320125,129.92,0,0,0,0,0
1562684320140.63,152.4,0,0,0,0,0
1562684320156.25,160.69,0,0,0,0,0
1562684320171.88,157.02,0,0,0,0,0
1562684320187.5,144.32,0,0,0,0,0
1562684320203.13,125.68,0,0,0,0,0
1562684320218.75,103.89,0,0,0,0,0
1562684320234.38,81.26,0,0,0,0,0
1562684320250,59.38,0,0,0,0,0
1562684320265.63,38.9,0,0,0,0,0
1562684320281.25,19.42,0,0,0,0,0
1562684320296.88,-0.42,0,0,0,0,0
1562684320312.5,-22.6,0,0,0,0,0
1562684320328.13,-48.71,0,0,0,0,0
1562684320343.75,-78.77,0,0,0,0,0
1562684320359.38,-110.22,0,0,0,0,0
1562684320375,-137.86,0,0,0,0,0
1562684320390.63,-155.13,0,0,0,0,0
1562684320406.25,-156.33,0,0,0,0,0
1562684320421.88,-139.07,0,0,0,0,0
1562684320437.5,-105.45,0,0,0,0,0
1562684320453.13,-61.67,0,0,0,0,0
1562684320468.75,-15.88,0,0,0,0,0
1562684320484.38,24.42,0,0,0,0,0
1562684320500,54.37,0,0,0,0,0
1562684320515.63,72.34,0,0,0,0,0
1562684320531.25,79.15,0,0,0,0,0
1562684320546.88,76.77,0,0,0,0,0
1562684320562.5,67.21,0,0,0,0,0
1562684320578.13,52.28,0,0,0,0,0
1562684320593.75,33.71,0,0,0,0,0
1562684320609.38,13.53,0,0,0,0,0
1562684320625,-6.06,0,0,0,0,0
1562684320640.63,-23.22,0,0,0,0,0
1562684320656.25,-37.18,0,0,0,0,0
1562684320671.88,-48.49,0,0,0,0,0
1562684320687.5,-58.54,0,0,0,0,0
1562684320703.13,-68.53,0,0,0,0,0
1562684320718.75,-78.43,0,0,0,0,0
1562684320734.38,-86.54,0,0,0,0,0
1562684320750,-90.04,0,0,0,0,0
1562684320765.63,-86.39,0,0,0,0,0
1562684320781.25,-74.72,0,0,0,0,0
1562684320796.88,-56.58,0,0,0,0,0
1562684320812.5,-35.43,0,0,0,0,0
1562684320828.13,-15.21,0,0,0,0,0
1562684320843.75,1.36,0,0,0,0,0
1562684320859.38,13.71,0,0,0,0,0
1562684320875,23.26,0,0,0,0,0
1562684320890.63,32.28,0,0,0,0,0
1562684320906.25,42.38,0,0,0,0,0
1562684320921.88,53.62,0,0,0,0,0
1562684320937.5,64.53,0,0,0,0,0
1562684320953.13,72.91,0,0,0,0,0
1562684320968.75,76.96,0,0,0,0,0
1562684320984.38,76.05,0,0,0,0,0
1562684321000,70.63,0,0,0,0,0
1562684321015.63,61.65,0,0,0,0,0
1562684321031.25,49.7,0,0,0,0,0
1562684321046.88,34.82,0,0,0,0,0
1562684321062.5,17.11,0,0,0,0,0
1562684321078.13,-2.25,0,0,0,0,0
1562684321093.75,-20.33,0,0,0,0,0
1562684321109.38,-32.86,0,0,0,0,0
1562684321125,-35.7,0,0,0,0,0
1562684321140.63,-26.79,0,0,0,0,0
1562684321156.25,-7.32,0,0,0,0,0
1562684321171.88,18.26,0,0,0,0,0
1562684321187.5,43.88,0,0,0,0,0
1562684321203.13,63.97,0,0,0,0,0
1562684321218.75,75.33,0,0,0,0,0
1562684321234.38,77.68,0,0,0,0,0
1562684321250,73.04,0,0,0,0,0
1562684321265.63,64.39,0,0,0,0,0
1562684321281.25,54.2,0,0,0,0,0
1562684321296.88,43.82,0,0,0,0,0
1562684321312.5,33.36,0,0,0,0,0
1562684321328.13,22.28,0,0,0,0,0
1562684321343.75,9.79,0,0,0,0,0
1562684321359.38,-4.8,0,0,0,0,0
1562684321375,-22.05,0,0,0,0,0
1562684321390.63,-42.25,0,0,0,0,0
1562684321406.25,-65.19,0,0,0,0,0
1562684321421.88,-89.43,0,0,0,0,0
1562684321437.5,-111.92,0,0,0,0,0
1562684321453.13,-128.12,0,0,0,0,0
1562684321468.75,-133.17,0,0,0,0,0
1562684321484.38,-123.52,0,0,0,0,0
1562684321500,-98.59,0,0,0,0,0
1562684321515.63,-61.31,0,0,0,0,0
1562684321531.25,-17.34,0,0,0,0,0
1562684321546.88,26.68,0,0,0,0,0
1562684321562.5,65.02,0,0,0,0,0
1562684321578.13,94.17,0,0,0,0,0
1562684321593.75,112.93,0,0,0,0,0
1562684321609.38,121.67,0,0,0,0,0
1562684321625,121.3,0,0,0,0,0
1562684321640.63,112.68,0,0,0,0,0
1562684321656.25,96.53,0,0,0,0,0
1562684321671.88,73.89,0,0,0,0,0
1562684321687.5,46.54,0,0,0,0,0
1562684321703.13,17.05,0,0,0,0,0
1562684321718.75,-11.61,0,0,0,0,0
1562684321734.38,-36.77,0,0,0,0,0
1562684321750,-56.84,0,0,0,0,0
1562684321765.63,-71.47,0,0,0,0,0
1562684321781.25,-81.19,0,0,0,0,0
1562684321796.88,-86.3,0,0,0,0,0
1562684321812.5,-85.98,0,0,0,0,0
1562684321828.13,-78.16,0,0,0,0,0
1562684321843.75,-60.56,0,0,0,0,0
1562684321859.38,-32.4,0,0,0,0,0
1562684321875,4.25,0,0,0,0,0
1562684321890.63,44.44,0,0,0,0,0
1562684321906.25,81.64,0,0,0,0,0
1562684321921.88,109.78,0,0,0,0,0
1562684321937.5,125,0,0,0,0,0
1562684321953.13,126.29,0,0,0,0,0
1562684321968.75,114.91,0,0,0,0,0
1562684321984.38,93.65,0,0,0,0,0
1562684322000,66.07,0,0,0,0,0
1562684322015.63,36.23,0,0,0,0,0
1562684322031.25,8.48,0,0,0,0,0
1562684322046.88,-13.19,0,0,0,0,0
1562684322062.5,-26.27,0,0,0,0,0
1562684322078.13,-30.74,0,0,0,0,0
1562684322093.75,-29.41,0,0,0,0,0
1562684322109.38,-27.09,0,0,0,0,0
1562684322125,-29,0,0,0,0,0
1562684322140.63,-39.01,0,0,0,0,0
1562684322156.25,-58.17,0,0,0,0,0
1562684322171.88,-84.32,0,0,0,0,0
1562684322187.5,-112.43,0,0,0,0,0
1562684322203.13,-135.76,0,0,0,0,0
1562684322218.75,-147.66,0,0,0,0,0
1562684322234.38,-143.39,0,0,0,0,0
1562684322250,-121.66,0,0,0,0,0
1562684322265.63,-85.02,0,0,0,0,0
1562684322281.25,-39.19,0,0,0,0,0
1562684322296.88,8.67,0,0,0,0,0
1562684322312.5,51.79,0,0,0,0,0
1562684322328.13,85.29,0,0,0,0,0
1562684322343.75,106.65,0,0,0,0,0
1562684322359.38,115.34,0,0,0,0,0
1562684322375,112.3,0,0,0,0,0
1562684322390.63,99.27,0,0,0,0,0
1562684322406.25,78.44,0,0,0,0,0
1562684322421.88,52.2,0,0,0,0,0
1562684322437.5,22.78,0,0,0,0,0
1562684322453.13,-8.23,0,0,0,0,0
1562684322468.75,-40.09,0,0,0,0,0
1562684322484.38,-72.5,0,0,0,0,0
1562684322500,-105.03,0,0,0,0,0
1562684322515.63,-136.14,0,0,0,0,0
1562684322531.25,-162.77,0,0,0,0,0
1562684322546.88,-180.83,0,0,0,0,0
1562684322562.5,-186.25,0,0,0,0,0
1562684322578.13,-176.08,0,0,0,0,0
1562684322593.75,-149.2,0,0,0,0,0
1562684322609.38,-106.53,0,0,0,0,0
1562684322625,-51.16,0,0,0,0,0
1562684322640.63,11.53,0,0,0,0,0
1562684322656.25,74.09,0,0,0,0,0
1562684322671.88,127.94,0,0,0,0,0
1562684322687.5,165.5,0,0,0,0,0
1562684322703.13,182.53,0,0,0,0,0
1562684322718.75,179.61,0,0,0,0,0
1562684322734.38,161.45,0,0,0,0,0
1562684322750,134.48,0,0,0,0,0
1562684322765.63,104.24,0,0,0,0,0
1562684322781.25,73.98,0,0,0,0,0
1562684322796.88,45.59,0,0,0,0,0
1562684322812.5,21.32,0,0,0,0,0
1562684322828.13,4.74,0,0,0,0,0
1562684322843.75,-0.48,0,0,0,0,0
1562684322859.38,6.62,0,0,0,0,0
1562684322875,22.31,0,0,0,0,0
1562684322890.63,38.93,0,0,0,0,0
1562684322906.25,48.45,0,0,0,0,0
1562684322921.88,46.93,0,0,0,0,0
1562684322937.5,36.85,0,0,0,0,0
1562684322953.13,25.66,0,0,0,0,0
1562684322968.75,21.43,0,0,0,0,0
1562684322984.38,28.55,0,0,0,0,0
1562684323000,45.44,0,0,0,0,0
1562684323015.63,65.99,0,0,0,0,0
1562684323031.25,83.13,0,0,0,0,0
1562684323046.88,92.09,0,0,0,0,0
1562684323062.5,91.93,0,0,0,0,0
1562684323078.13,84.61,0,0,0,0,0
1562684323093.75,72.95,0,0,0,0,0
1562684323109.38,58.82,0,0,0,0,0
1562684323125,42.62,0,0,0,0,0
1562684323140.63,23.98,0,0,0,0,0
1562684323156.25,2.86,0,0,0,0,0
1562684323171.88,-19.73,0,0,0,0,0
1562684323187.5,-42.13,0,0,0,0,0
1562684323203.13,-63.03,0,0,0,0,0
1562684323218.75,-82.38,0,0,0,0,0
1562684323234.38,-101.46,0,0,0,0,0
1562684323250,-121.7,0,0,0,0,0
1562684323265.63,-143.15,0,0,0,0,0
1562684323281.25,-163.41,0,0,0,0,0
1562684323296.88,-177.88,0,0,0,0,0
1562684323312.5,-181.17,0,0,0,0,0
1562684323328.13,-169.04,0,0,0,0,0
1562684323343.75,-140.07,0,0,0,0,0
1562684323359.38,-96.38,0,0,0,0,0
1562684323375,-43.45,0,0,0,0,0
1562684323390.63,10.95,0,0,0,0,0
1562684323406.25,58.39,0,0,0,0,0
1562684323421.88,91.76,0,0,0,0,0
1562684323437.5,107.21,0,0,0,0,0
1562684323453.13,105.37,0,0,0,0,0
1562684323468.75,91.13,0,0,0,0,0
1562684323484.38,72.03,0,0,0,0,0
1562684323500,55.4,0,0,0,0,0
1562684323515.63,45.65,0,0,0,0,0
1562684323531.25,42.92,0,0,0,0,0
1562684323546.88,43.75,0,0,0,0,0
1562684323562.5,43.21,0,0,0,0,0
1562684323578.13,37.34,0,0,0,0,0
1562684323593.75,24.52,0,0,0,0,0
1562684323609.38,5.76,0,0,0,0,0
1562684323625,-15.95,0,0,0,0,0
1562684323640.63,-36.39,0,0,0,0,0
1562684323656.25,-50.85,0,0,0,0,0
1562684323671.88,-54.83,0,0,0,0,0
1562684323687.5,-45.08,0,0,0,0,0
1562684323703.13,-20.86,0,0,0,0,0
1562684323718.75,15.22,0,0,0,0,0
1562684323734.38,57.24,0,0,0,0,0
1562684323750,97.34,0,0,0,0,0
1562684323765.63,127.99,0,0,0,0,0
1562684323781.25,144.36,0,0,0,0,0
1562684323796.88,145.51,0,0,0,0,0
1562684323812.5,134.04,0,0,0,0,0
1562684323828.13,114.21,0,0,0,0,0
1562684323843.75,89.72,0,0,0,0,0
1562684323859.38,62.37,0,0,0,0,0
1562684323875,32.33,0,0,0,0,0
1562684323890.63,-0.57,0,0,0,0,0
1562684323906.25,-35.3,0,0,0,0,0
1562684323921.88,-69.37,0,0,0,0,0
1562684323937.5,-99.61,0,0,0,0,0
1562684323953.13,-123.7,0,0,0,0,0
1562684323968.75,-141.07,0,0,0,0,0
1562684323984.38,-152.38,0,0,0,0,0
1562684324000,-157.91,0,0,0,0,0
1562684324015.63,-156.34,0,0,0,0,0
1562684324031.25,-144.81,0,0,0,0,0
1562684324046.88,-120.73,0,0,0,0,0
1562684324062.5,-84.15,0,0,0,0,0
1562684324078.13,-39.07,0,0,0,0,0
1562684324093.75,7.29,0,0,0,0,0
1562684324109.38,47.13,0,0,0,0,0
1562684324125,75.02,0,0,0,0,0
1562684324140.63,89.59,0,0,0,0,0
1562684324156.25,93.15,0,0,0,0,0
1562684324171.88,89.73,0,0,0,0,0
1562684324187.5,82.79,0,0,0,0,0
1562684324203.13,73.86,0,0,0,0,0
1562684324218.75,62.7,0,0,0,0,0
1562684324234.38,48.65,0,0,0,0,0
1562684324250,31.99,0,0,0,0,0
1562684324265.63,14.79,0,0,0,0,0
1562684324281.25,0.58,0,0,0,0,0
1562684324296.88,-6.95,0,0,0,0,0
1562684324312.5,-5.67,0,0,0,0,0
1562684324328.13,3.7,0,0,0,0,0
1562684324343.75,17.55,0,0,0,0,0
1562684324359.38,30.73,0,0,0,0,0
1562684324375,38.7,0,0,0,0,0
1562684324390.63,39.46,0,0,0,0,0
1562684324406.25,34.25,0,0,0,0,0
1562684324421.88,26.64,0,0,0,0,0
1562684324437.5,20.55,0,0,0,0,0
1562684324453.13,18.42,0,0,0,0,0
1562684324468.75,20.55,0,0,0,0,0
1562684324484.38,25.48,0,0,0,0,0
1562684324500,31.43,0,0,0,0,0
1562684324515.63,37.34,0,0,0,0,0
1562684324531.25,43.02,0,0,0,0,0
1562684324546.88,48.46,0,0,0,0,0
1562684324562.5,52.8,0,0,0,0,0
1562684324578.13,54.04,0,0,0,0,0
1562684324593.75,49.81,0,0,0,0,0
1562684324609.38,38.86,0,0,0,0,0
1562684324625,22.4,0,0,0,0,0
1562684324640.63,4.32,0,0,0,0,0
1562684324656.25,-10.28,0,0,0,0,0
1562684324671.88,-17.35,0,0,0,0,0
1562684324687.5,-15.92,0,0,0,0,0
1562684324703.13,-8.53,0,0,0,0,0
1562684324718.75,0.09,0,0,0,0,0
1562684324734.38,5.65,0,0,0,0,0
1562684324750,6.27,0,0,0,0,0
1562684324765.63,3.17,0,0,0,0,0
1562684324781.25,-0.67,0,0,0,0,0
1562684324796.88,-2.59,0,0,0,0,0
1562684324812.5,-1.95,0,0,0,0,0
1562684324828.13,-0.36,0,0,0,0,0
1562684324843.75,-0.42,0,0,0,0,0
1562684324859.38,-4.11,0,0,0,0,0
1562684324875,-11.69,0,0,0,0,0
1562684324890.63,-21.95,0,0,0,0,0
1562684324906.25,-33.11,0,0,0,0,0
1562684324921.88,-43.96,0,0,0,0,0
1562684324937.5,-54.31,0,0,0,0,0
1562684324953.13,-64.67,0,0,0,0,0
1562684324968.75,-75.48,0,0,0,0,0
1562684324984.38,-86.59,0,0,0,0,0
1562684325000,-97.21,0,0,0,0,0
1562684325015.63,-106.32,0,0,0,0,0
1562684325031.25,-113.18,0,0,0,0,0
1562684325046.88,-117.6,0,0,0,0,0
1562684325062.5,-119.79,0,0,0,0,0
1562684325078.13,-119.94,0,0,0,0,0
1562684325093.75,-117.67,0,0,0,0,0
1562684325109.38,-111.92,0,0,0,0,0
1562684325125,-101.35,0,0,0,0,0
1562684325140.63,-85.07,0,0,0,0,0
1562684325156.25,-63.44,0,0,0,0,0
1562684325171.88,-38.44,0,0,0,0,0
1562684325187.5,-13.43,0,0,0,0,0
1562684325203.13,7.69,0,0,0,0,0
1562684325218.75,21.49,0,0,0,0,0
1562684325234.38,25.92,0,0,0,0,0
1562684325250,20.62,0,0,0,0,0
1562684325265.63,6.87,0,0,0,0,0
1562684325281.25,-12.99,0,0,0,0,0
1562684325296.88,-35.99,0,0,0,0,0
1562684325312.5,-59.04,0,0,0,0,0
1562684325328.13,-79.22,0,0,0,0,0
1562684325343.75,-94.11,0,0,0,0,0
1562684325359.38,-102.26,0,0,0,0,0
1562684325375,-103.86,0,0,0,0,0
1562684325390.63,-101.07,0,0,0,0,0
1562684325406.25,-97.65,0,0,0,0,0
1562684325421.88,-97.56,0,0,0,0,0
1562684325437.5,-103.04,0,0,0,0,0
1562684325453.13,-113.08,0,0,0,0,0
1562684325468.75,-123.17,0,0,0,0,0
1562684325484.38,-126.98,0,0,0,0,0
1562684325500,-119.05,0,0,0,0,0
1562684325515.63,-97.36,0,0,0,0,0
1562684325531.25,-64.43,0,0,0,0,0
1562684325546.88,-26.18,0,0,0,0,0
1562684325562.5,10.52,0,0,0,0,0
1562684325578.13,40.4,0,0,0,0,0
1562684325593.75,61.19,0,0,0,0,0
1562684325609.38,73.25,0,0,0,0,0
1562684325625,78.11,0,0,0,0,0
1562684325640.63,77.06,0,0,0,0,0
1562684325656.25,70.53,0,0,0,0,0
1562684325671.88,58.43,0,0,0,0,0
1562684325687.5,41.02,0,0,0,0,0
1562684325703.13,19.39,0,0,0,0,0
1562684325718.75,-4.67,0,0,0,0,0
1562684325734.38,-29.43,0,0,0,0,0
1562684325750,-53.75,0,0,0,0,0
1562684325765.63,-77.05,0,0,0,0,0
1562684325781.25,-98.69,0,0,0,0,0
1562684325796.88,-117.01,0,0,0,0,0
1562684325812.5,-128.91,0,0,0,0,0
1562684325828.13,-130.31,0,0,0,0,0
1562684325843.75,-117.52,0,0,0,0,0
1562684325859.38,-88.92,0,0,0,0,0
1562684325875,-46.24,0,0,0,0,0
1562684325890.63,5.38,0,0,0,0,0
1562684325906.25,58.53,0,0,0,0,0
1562684325921.88,105.63,0,0,0,0,0
1562684325937.5,140.98,0,0,0,0,0
1562684325953.13,162,0,0,0,0,0
1562684325968.75,169.37,0,0,0,0,0
1562684325984.38,165.97,0,0,0,0,0
1562684326000,155.38,0,0,0,0,0
1562684326015.63,140.61,0,0,0,0,0
1562684326031.25,123.47,0,0,0,0,0
1562684326046.88,104.59,0,0,0,0,0
1562684326062.5,84.02,0,0,0,0,0
1562684326078.13,61.57,0,0,0,0,0
1562684326093.75,37.04,0,0,0,0,0
1562684326109.38,10.08,0,0,0,0,0
1562684326125,-19.6,0,0,0,0,0
1562684326140.63,-51.62,0,0,0,0,0
1562684326156.25,-83.92,0,0,0,0,0
1562684326171.88,-112.34,0,0,0,0,0
1562684326187.5,-131.14,0,0,0,0,0
1562684326203.13,-134.73,0,0,0,0,0
1562684326218.75,-119.89,0,0,0,0,0
1562684326234.38,-87.37,0,0,0,0,0
1562684326250,-42.16,0,0,0,0,0
1562684326265.63,7.99,0,0,0,0,0
1562684326281.25,54.95,0,0,0,0,0
1562684326296.88,92.42,0,0,0,0,0
1562684326312.5,117.2,0,0,0,0,0
1562684326328.13,129.11,0,0,0,0,0
1562684326343.75,129.91,0,0,0,0,0
1562684326359.38,122.2,0,0,0,0,0
1562684326375,108.47,0,0,0,0,0
1562684326390.63,90.96,0,0,0,0,0
1562684326406.25,71.6,0,0,0,0,0
1562684326421.88,52.16,0,0,0,0,0
1562684326437.5,34.01,0,0,0,0,0
1562684326453.13,17.72,0,0,0,0,0
1562684326468.75,2.79,0,0,0,0,0
1562684326484.38,-12.1,0,0,0,0,0
1562684326500,-28.32,0,0,0,0,0
1562684326515.63,-46.14,0,0,0,0,0
1562684326531.25,-63.85,0,0,0,0,0
1562684326546.88,-77.91,0,0,0,0,0
1562684326562.5,-84.12,0,0,0,0,0
1562684326578.13,-79.5,0,0,0,0,0
1562684326593.75,-63.73,0,0,0,0,0
1562684326609.38,-39.58,0,0,0,0,0
1562684326625,-11.93,0,0,0,0,0
1562684326640.63,14.1,0,0,0,0,0
1562684326656.25,34.85,0,0,0,0,0
1562684326671.88,48.98,0,0,0,0,0
1562684326687.5,57.14,0,0,0,0,0
1562684326703.13,60.98,0,0,0,0,0
1562684326718.75,62.06,0,0,0,0,0
1562684326734.38,61.33,0,0,0,0,0
1562684326750,59.14,0,0,0,0,0
1562684326765.63,55.65,0,0,0,0,0
1562684326781.25,51.23,0,0,0,0,0
1562684326796.88,46.46,0,0,0,0,0
1562684326812.5,41.75,0,0,0,0,0
1562684326828.13,36.83,0,0,0,0,0
1562684326843.75,30.52,0,0,0,0,0
1562684326859.38,21.18,0,0,0,0,0
1562684326875,7.79,0,0,0,0,0
1562684326890.63,-8.89,0,0,0,0,0
1562684326906.25,-25.86,0,0,0,0,0
1562684326921.88,-38.53,0,0,0,0,0
1562684326937.5,-42.52,0,0,0,0,0
1562684326953.13,-35.6,0,0,0,0,0
1562684326968.75,-18.97,0,0,0,0,0
1562684326984.38,2.98,0,0,0,0,0
1562684327000,24.3,0,0,0,0,0
1562684327015.63,39.72,0,0,0,0,0
1562684327031.25,46.33,0,0,0,0,0
1562684327046.88,44.08,0,0,0,0,0
1562684327062.5,35.08,0,0,0,0,0
1562684327078.13,22.28,0,0,0,0,0
1562684327093.75,8.3,0,0,0,0,0
1562684327109.38,-5.1,0,0,0,0,0
1562684327125,-16.97,0,0,0,0,0
1562684327140.63,-26.93,0,0,0,0,0
1562684327156.25,-35.14,0,0,0,0,0
1562684327171.88,-42.51,0,0,0,0,0
1562684327187.5,-50.85,0,0,0,0,0
1562684327203.13,-62.29,0,0,0,0,0
1562684327218.75,-78.18,0,0,0,0,0
1562684327234.38,-97.62,0,0,0,0,0
1562684327250,-116.64,0,0,0,0,0
1562684327265.63,-128.8,0,0,0,0,0
1562684327281.25,-127.35,0,0,0,0,0
1562684327296.88,-107.98,0,0,0,0,0
1562684327312.5,-71.03,0,0,0,0,0
1562684327328.13,-21.74,0,0,0,0,0
1562684327343.75,31.26,0,0,0,0,0
1562684327359.38,78.92,0,0,0,0,0
1562684327375,114.46,0,0,0,0,0
1562684327390.63,134.73,0,0,0,0,0
1562684327406.25,140.01,0,0,0,0,0
1562684327421.88,132.64,0,0,0,0,0
1562684327437.5,115.63,0,0,0,0,0
1562684327453.13,91.79,0,0,0,0,0
1562684327468.75,63.57,0,0,0,0,0
1562684327484.38,33.43,0,0,0,0,0
1562684327500,3.83,0,0,0,0,0
1562684327515.63,-23.04,0,0,0,0,0
1562684327531.25,-45.89,0,0,0,0,0
1562684327546.88,-64.6,0,0,0,0,0
1562684327562.5,-79.79,0,0,0,0,0
1562684327578.13,-91.77,0,0,0,0,0
1562684327593.75,-99.35,0,0,0,0,0
1562684327609.38,-99.46,0,0,0,0,0
1562684327625,-88.2,0,0,0,0,0
1562684327640.63,-62.72,0,0,0,0,0
1562684327656.25,-23.27,0,0,0,0,0
1562684327671.88,26,0,0,0,0,0
1562684327687.5,77.89,0,0,0,0,0
1562684327703.13,124.41,0,0,0,0,0
1562684327718.75,159.38,0,0,0,0,0
1562684327734.38,179.95,0,0,0,0,0
1562684327750,186.77,0,0,0,0,0
1562684327765.63,182.82,0,0,0,0,0
1562684327781.25,171.77,0,0,0,0,0
1562684327796.88,156.75,0,0,0,0,0
1562684327812.5,139.78,0,0,0,0,0
1562684327828.13,121.83,0,0,0,0,0
1562684327843.75,103.05,0,0,0,0,0
1562684327859.38,83.02,0,0,0,0,0
1562684327875,60.98,0,0,0,0,0
1562684327890.63,35.93,0,0,0,0,0
1562684327906.25,6.95,0,0,0,0,0
1562684327921.88,-26.22,0,0,0,0,0
1562684327937.5,-62.36,0,0,0,0,0
1562684327953.13,-98.17,0,0,0,0,0
1562684327968.75,-128.34,0,0,0,0,0
1562684327984.38,-146.51,0,0,0,0,0
1562684328000,-147.25,0,0,0,0,0
1562684328015.63,-128.27,0,0,0,0,0
1562684328031.25,-91.73,0,0,0,0,0
1562684328046.88,-44,0,0,0,0,0
1562684328062.5,6.16,0,0,0,0,0
1562684328078.13,50.3,0,0,0,0,0
1562684328093.75,82.63,0,0,0,0,0
1562684328109.38,101.08,0,0,0,0,0
1562684328125,106.79,0,0,0,0,0
1562684328140.63,102.7,0,0,0,0,0
1562684328156.25,91.96,0,0,0,0,0
1562684328171.88,77.15,0,0,0,0,0
1562684328187.5,60.11,0,0,0,0,0
1562684328203.13,42.26,0,0,0,0,0
1562684328218.75,24.82,0,0,0,0,0
1562684328234.38,8.65,0,0,0,0,0
1562684328250,-6.2,0,0,0,0,0
1562684328265.63,-20.71,0,0,0,0,0
1562684328281.25,-36.68,0,0,0,0,0
1562684328296.88,-55.7,0,0,0,0,0
1562684328312.5,-77.9,0,0,0,0,0
1562684328328.13,-100.98,0,0,0,0,0
1562684328343.75,-120.42,0,0,0,0,0
1562684328359.38,-130.84,0,0,0,0,0
1562684328375,-128.02,0,0,0,0,0
1562684328390.63,-110.81,0,0,0,0,0
1562684328406.25,-81.79,0,0,0,0,0
1562684328421.88,-46.48,0,0,0,0,0
1562684328437.5,-11.38,0,0,0,0,0
1562684328453.13,18.07,0,0,0,0,0
1562684328468.75,38.78,0,0,0,0,0
1562684328484.38,50.18,0,0,0,0,0
1562684328500,53.59,0,0,0,0,0
1562684328515.63,51.16,0,0,0,0,0
1562684328531.25,45.1,0,0,0,0,0
1562684328546.88,37.41,0,0,0,0,0
1562684328562.5,29.75,0,0,0,0,0
1562684328578.13,23.36,0,0,0,0,0
1562684328593.75,18.77,0,0,0,0,0
1562684328609.38,15.4,0,0,0,0,0
1562684328625,11.47,0,0,0,0,0
1562684328640.63,4.34,0,0,0,0,0
1562684328656.25,-8.39,0,0,0,0,0
1562684328671.88,-27.37,0,0,0,0,0
1562684328687.5,-50.41,0,0,0,0,0
1562684328703.13,-72.45,0,0,0,0,0
1562684328718.75,-86.98,0,0,0,0,0
1562684328734.38,-88.45,0,0,0,0,0
1562684328750,-74.62,0,0,0,0,0
1562684328765.63,-47.86,0,0,0,0,0
1562684328781.25,-14.49,0,0,0,0,0
1562684328796.88,17.4,0,0,0,0,0
1562684328812.5,40.8,0,0,0,0,0
1562684328828.13,52.09,0,0,0,0,0
1562684328843.75,51.65,0,0,0,0,0
1562684328859.38,42.92,0,0,0,0,0
1562684328875,30.46,0,0,0,0,0
1562684328890.63,17.94,0,0,0,0,0
1562684328906.25,7.09,0,0,0,0,0
1562684328921.88,-2.38,0,0,0,0,0
1562684328937.5,-11.92,0,0,0,0,0
1562684328953.13,-23.16,0,0,0,0,0
1562684328968.75,-37.22,0,0,0,0,0
1562684328984.38,-54.2,0,0,0,0,0
1562684329000,-72.93,0,0,0,0,0
1562684329015.63,-90.78,0,0,0,0,0
1562684329031.25,-103.79,0,0,0,0,0
1562684329046.88,-107.31,0,0,0,0,0
1562684329062.5,-97.27,0,0,0,0,0
1562684329078.13,-71.87,0,0,0,0,0
1562684329093.75,-32.74,0,0,0,0,0
1562684329109.38,14.89,0,0,0,0,0
1562684329125,63.43,0,0,0,0,0
1562684329140.63,105.13,0,0,0,0,0
1562684329156.25,134.18,0,0,0,0,0
1562684329171.88,147.96,0,0,0,0,0
1562684329187.5,146.98,0,0,0,0,0
1562684329203.13,133.8,0,0,0,0,0
1562684329218.75,111.76,0,0,0,0,0
1562684329234.38,84.07,0,0,0,0,0
1562684329250,53.5,0,0,0,0,0
1562684329265.63,22.49,0,0,0,0,0
1562684329281.25,-6.81,0,0,0,0,0
1562684329296.88,-32.77,0,0,0,0,0
1562684329312.5,-54.58,0,0,0,0,0
1562684329328.13,-72.41,0,0,0,0,0
1562684329343.75,-87.03,0,0,0,0,0
1562684329359.38,-98.97,0,0,0,0,0
1562684329375,-107.52,0,0,0,0,0
1562684329390.63,-110.33,0,0,0,0,0
1562684329406.25,-104.02,0,0,0,0,0
1562684329421.88,-85.71,0,0,0,0,0
1562684329437.5,-54.68,0,0,0,0,0
1562684329453.13,-13.5,0,0,0,0,0
1562684329468.75,32.28,0,0,0,0,0
1562684329484.38,75.71,0,0,0,0,0
1562684329500,110.47,0,0,0,0,0
1562684329515.63,132.54,0,0,0,0,0
1562684329531.25,140.69,0,0,0,0,0
1562684329546.88,135.91,0,0,0,0,0
1562684329562.5,120.43,0,0,0,0,0
1562684329578.13,96.87,0,0,0,0,0
1562684329593.75,68.09,0,0,0,0,0
1562684329609.38,37.37,0,0,0,0,0
1562684329625,8.45,0,0,0,0,0
1562684329640.63,-15.08,0,0,0,0,0
1562684329656.25,-30.86,0,0,0,0,0
1562684329671.88,-38.83,0,0,0,0,0
1562684329687.5,-41.55,0,0,0,0,0
1562684329703.13,-43.29,0,0,0,0,0
1562684329718.75,-48.13,0,0,0,0,0
1562684329734.38,-57.8,0,0,0,0,0
1562684329750,-70.58,0,0,0,0,0
